0.0403387
0.0400596
0.0399758
0.0401301
0.0405415
0.0412074
0.0421063
0.0432012
0.0444374
0.0457575
0.0471131
0.0484703
0.0498106
0.0511476
0.0525294
0.0540105
0.0555958
0.0572396
0.0588449
0.0602668
0.0613169
0.0617778
0.0614199
0.0600181
0.0573744
0.0533669
0.0479639
0.0411743
0.0329992
0.0234897
0.0127857
0.00112519
-0.0111895
-0.0237945
-0.0363114
-0.0484335
-0.0600444
-0.0712072
-0.0820529
-0.0927512
-0.103573
-0.114873
-0.126992
-0.140216
-0.154757
-0.170713
-0.188054
-0.206559
-0.225728
-0.244657
-0.261889
-0.275512
-0.283362
-0.283345
-0.273867
-0.254284
-0.225256
-0.188942
-0.148473
-0.106477
-0.0650953
-0.0257267
0.0110517
0.045082
0.0758807
0.102658
0.124652
0.14133
0.152513
0.158484
0.160001
0.157811
0.152549
0.144986
0.135871
0.125577
0.114307
0.102291
0.0898644
0.0775439
0.0660532
0.0562734
0.0491161
0.0453392
0.0453271
0.0488868
0.0550729
0.062214
0.068275
0.0710855
0.0685179
0.0590065
0.0417914
0.017031
-0.0145342
-0.0526026
-0.0971439
-0.147862
-0.20402
-0.264615
-0.328489
-0.393949
-0.458582
-0.519544
-0.574383
-0.621042
-0.657911
-0.683937
-0.698309
-0.7
-0.688385
-0.663504
-0.625327
-0.573391
-0.507771
-0.429538
-0.340395
-0.243389
-0.142927
-0.0435216
0.0507391
0.136126
0.209815
0.270208
0.317088
0.351198
0.373547
0.38565
0.388926
0.384146
0.372177
0.354313
0.331976
0.306735
0.280596
0.255699
0.23331
0.213673
0.196141
0.17921
0.160737
0.138578
0.111174
0.0776667
0.0380449
-0.00679795
-0.0554372
-0.106187
-0.156876
-0.204842
-0.24729
-0.281621
-0.30576
-0.318767
-0.321625
-0.317082
-0.308293
-0.297045
-0.284301
-0.270694
-0.256621
-0.242314
-0.227821
-0.213159
-0.198407
-0.18377
-0.16954
-0.155973
-0.143195
-0.131188
-0.11975
-0.108497
-0.0969798
-0.0849629
-0.0724114
-0.0594817
-0.046543
-0.0341874
-0.023187
-0.0144159
-0.0086954
-0.00663481
-0.00845587
-0.0138613
-0.0220826
-0.0320374
-0.0421489
-0.0502884
-0.0539948
-0.0509934
-0.0395033
-0.018517
0.0119235
0.0507305
0.0960311
0.145154
0.195458
0.245046
0.292426
0.336253
0.375226
0.408105
0.433909
0.451955
0.461747
0.4634
0.458015
0.447806
0.435393
0.422042
0.40811
0.393532
0.378032
0.361487
0.344107
0.32646
0.309383
0.293599
0.279208
0.265784
0.252675
0.239581
0.226733
0.21467
0.203934
0.194772
0.187043
0.180174
0.173101
0.164314
0.151998
0.134251
0.109381
0.0764153
0.035736
-0.0106527
-0.059129
-0.105124
-0.145184
-0.17854
-0.206039
-0.228361
-0.246337
-0.260982
-0.27288
-0.282212
-0.288981
-0.293123
-0.294592
-0.293197
-0.28816
-0.278437
-0.263063
-0.241345
-0.212766
-0.1768
-0.13344
-0.0836692
-0.0296132
0.0257506
0.0789431
0.125979
0.162885
0.186795
0.196485
0.19243
0.176298
0.150575
0.119083
0.0865587
0.0569241
0.0331129
0.0172916
0.010771
0.0139425
0.0260477
0.044965
0.0673477
0.0897897
0.110408
0.128523
0.144336
0.158793
0.173125
0.188284
0.204881
0.223144
0.242809
0.263162
0.283282
0.302277
0.319211
0.333017
0.342295
0.345237
0.339948
0.324706
0.29807
0.259233
0.208583
0.147741
0.0789064
0.00506321
-0.0698597
-0.142071
-0.209431
-0.270817
-0.325056
-0.370783
-0.406806
-0.432386
-0.447359
-0.452357
-0.448331
-0.435757
-0.415152
-0.387088
-0.351799
-0.309802
-0.262393
-0.211577
-0.159361
-0.10749
-0.0576784
-0.0113872
0.0307579
0.0689316
0.103789
0.135826
0.165143
0.191676
0.215127
0.234638
0.248991
0.257039
0.258107
0.252399
0.241292
0.227254
0.212985
0.200701
0.19235
0.189687
0.194266
0.207403
0.229744
0.260852
0.299116
0.342092
0.386566
0.42932
0.467483
0.498399
0.519695
0.529465
0.526617
0.511061
0.483449
0.445459
0.399439
0.346885
0.289193
0.228328
0.166842
0.107427
0.0528926
0.0061254
-0.0303544
-0.0552539
-0.0692011
-0.0742097
-0.0721184
-0.0647629
-0.0545315
-0.0441482
-0.0357347
-0.0307519
-0.0301849
-0.0345377
-0.0438836
-0.0581007
-0.0768464
-0.0993318
-0.124279
-0.150371
-0.176893
-0.203436
-0.229616
-0.254894
-0.27833
-0.298588
-0.314051
-0.323028
-0.324014
-0.316046
-0.299067
-0.274195
-0.243351
-0.207969
-0.169127
-0.12803
-0.0861239
-0.0447952
-0.00489899
0.0330769
0.068867
0.102379
0.133532
0.161888
0.186406
0.205681
0.21817
0.22234
0.216926
0.201359
0.175915
0.141156
0.0976191
0.0465556
-0.00955712
-0.0670026
-0.121675
-0.170385
-0.210715
-0.240866
-0.259488
-0.265698
-0.259727
-0.243349
-0.219851
-0.193371
-0.167446
-0.144458
-0.125949
-0.112628
-0.104219
-0.0994766
-0.0964614
-0.0933838
-0.0892793
-0.0838482
-0.0773277
-0.0703931
-0.0638668
-0.0583414
-0.0541205
-0.0511715
-0.0490764
-0.0471444
-0.0447392
-0.0413416
-0.0365527
-0.0301459
-0.0221135
-0.0126005
-0.00167907
0.0106231
0.0242187
0.038925
0.054491
0.0707704
0.0878313
0.105843
0.124957
0.145215
0.166448
0.188215
0.209817
0.230372
0.248791
0.263813
0.274098
0.278317
0.27514
0.263353
0.242322
0.212373
0.174936
0.131927
0.0848103
0.0350618
-0.0156105
-0.0656686
-0.113828
-0.15892
-0.199794
-0.235275
-0.264303
-0.28619
-0.300699
-0.307877
-0.308169
-0.302787
-0.293572
-0.282131
-0.269581
-0.256903
-0.245091
-0.235129
-0.227786
-0.223325
-0.221444
-0.221237
-0.22128
-0.220006
-0.216059
-0.208272
-0.195729
-0.177858
-0.154406
-0.125348
-0.0911679
-0.0530445
-0.0126929
0.0284535
0.0698381
0.111452
0.153447
0.195738
0.237865
0.279021
0.318105
0.353988
0.385877
0.413377
0.436522
0.455498
0.469919
0.479171
0.482775
0.480467
0.472035
0.457411
0.436948
0.411286
0.381033
0.347106
0.310976
0.274454
0.238923
0.20469
0.171241
0.137509
0.10238
0.0653207
0.0264007
-0.0137542
-0.054114
-0.0937193
-0.131609
-0.166799
-0.198281
-0.224977
-0.245953
-0.260667
-0.268971
-0.270858
-0.266819
-0.258131
-0.246718
-0.234386
-0.222192
-0.210711
-0.2002
-0.190638
-0.181765
-0.173164
-0.164425
-0.155281
-0.145639
-0.135606
-0.125519
-0.115977
-0.107862
-0.102241
-0.100216
-0.102741
-0.110425
-0.123407
-0.141285
-0.162898
-0.186382
-0.209737
-0.231046
-0.24838
-0.259859
-0.263823
-0.259008
-0.244932
-0.222234
-0.19286
-0.159625
-0.124709
-0.0891544
-0.0532864
-0.0169823
0.0201555
0.0585493
0.0985179
0.140139
0.183159
0.227022
0.271242
0.31563
0.360098
0.40429
0.447011
0.486066
0.518582
0.541479
0.552293
0.550152
0.536088
0.512938
0.483996
0.451093
0.415274
0.377369
0.338124
0.298158
0.25764
0.216495
0.174578
0.131702
0.0875289
0.0416895
-0.0060618
-0.0556598
-0.106502
-0.15722
-0.205748
-0.24952
-0.285956
-0.313424
-0.332016
-0.343321
-0.349248
-0.35052
-0.34723
-0.339317
-0.326639
-0.309212
-0.287495
-0.262535
-0.235695
-0.208165
-0.181148
-0.155831
-0.133004
-0.112966
-0.0954907
-0.0798191
-0.0648068
-0.0494724
-0.0334276
-0.0167616
8.69973e-05
0.0165069
0.0319807
0.0461016
0.0586128
0.0694612
0.078754
0.0865578
0.0929501
0.0981297
0.102476
0.106517
0.110793
0.115783
0.121927
0.129592
0.139021
0.150266
0.16321
0.17767
0.193278
0.209362
0.224938
0.238806
0.249687
0.256301
0.257514
0.252531
0.24105
0.223347
0.200375
0.173325
0.142938
0.10991
0.0752126
0.0401884
0.0063929
-0.0249095
-0.052846
-0.0769179
-0.0970708
-0.113613
-0.12687
-0.137139
-0.144948
-0.151189
-0.157142
-0.164109
-0.172638
-0.182622
-0.193465
-0.204312
-0.214378
-0.222902
-0.229135
-0.232393
-0.232104
-0.227724
-0.21847
-0.203566
-0.182464
-0.154821
-0.1204
-0.0795139
-0.0333746
0.0158324
0.0655301
0.113633
0.158372
0.198306
0.232714
0.261655
0.285726
0.305233
0.319646
0.328068
0.329716
0.324315
0.312376
0.294977
0.272897
0.246808
0.217758
0.187355
0.157685
0.130767
0.10803
0.0902492
0.0773131
0.0678225
0.0595257
0.0506928
0.040652
0.0295104
0.0179176
0.00662311
-0.00410243
-0.0143972
-0.0247198
-0.035607
-0.0471681
-0.0591367
-0.0709631
-0.0818932
-0.0912635
-0.0988675
-0.104961
-0.11022
-0.115652
-0.12225
-0.130694
-0.141313
-0.154014
-0.168186
-0.182682
-0.195903
-0.205913
-0.210784
-0.209326
-0.201663
-0.188907
-0.172245
-0.15267
-0.131259
-0.109076
-0.0867054
-0.0643855
-0.0421585
-0.0199227
0.00250245
0.0253602
0.0488812
0.073194
0.0982311
0.12366
0.148804
0.172567
0.193462
0.20978
0.219813
0.222174
0.216146
0.202044
0.181446
0.156984
0.131218
0.105727
0.0814606
0.0589686
0.0384536
0.0198794
0.00306793
-0.0122566
-0.0262414
-0.0384348
-0.0478266
-0.053102
-0.0529104
-0.0461973
-0.0325953
-0.0127279
0.0116072
0.0379034
0.0641883
0.088784
0.110118
0.126864
0.13813
0.143729
0.144356
0.141692
0.138153
0.135962
0.136367
0.139825
0.146137
0.154724
0.165254
0.177501
0.191246
0.206347
0.22265
0.239853
0.257398
0.274394
0.289635
0.301757
0.30944
0.311522
0.307173
0.295939
0.277622
0.252613
0.22216
0.188031
0.151387
0.112456
0.0710312
0.0268678
-0.0198638
-0.0682515
-0.116616
-0.162874
-0.205427
-0.243564
-0.27731
-0.306962
-0.332158
-0.352219
-0.366483
-0.374364
-0.375495
-0.370052
-0.358907
-0.343181
-0.323573
-0.300787
-0.275882
-0.250341
-0.22578
-0.203205
-0.183091
-0.165469
-0.14991
-0.135733
-0.122475
-0.10978
-0.0972945
-0.0846977
-0.0717979
-0.0586127
-0.0453228
-0.0322259
-0.0196984
-0.00813416
0.00213198
0.0109304
0.0183234
0.024666
0.0306294
0.0371727
0.0453371
0.0558577
0.0690886
0.0849441
0.10282
0.121701
0.140558
0.158506
0.174732
0.188503
0.199193
0.206251
0.209147
0.207583
0.201699
0.192192
0.180285
0.167188
0.15338
0.138835
0.123256
0.106184
0.0871768
0.0659647
0.0425674
0.0173514
-0.00902286
-0.0359547
-0.0631704
-0.0906276
-0.11842
-0.146721
-0.175676
-0.205391
-0.235905
-0.267229
-0.299269
-0.331736
-0.364079
-0.395452
-0.424713
-0.4505
-0.471308
-0.485622
-0.492166
-0.490222
-0.479799
-0.461457
-0.436189
-0.405691
-0.371921
-0.335749
-0.297395
-0.256863
-0.214116
-0.169152
-0.1219
-0.0724854
-0.0214883
0.02993
0.0800368
0.126774
0.167885
0.201103
0.224374
0.236025
0.235059
0.221792
0.198294
0.168327
0.13591
0.103278
0.0714697
0.0408583
0.0114526
-0.0165836
-0.0429347
-0.0671597
-0.0886961
-0.106876
-0.120936
-0.130215
-0.134322
-0.133152
-0.126793
-0.115772
-0.100872
-0.0823855
-0.0604892
-0.0355849
-0.00832188
0.0206498
0.0506857
0.080918
0.110124
0.136697
0.158676
0.173856
0.180117
0.175877
0.160655
0.135659
0.103458
0.0665572
0.0269804
-0.0132651
-0.0522344
-0.0883886
-0.120492
-0.147557
-0.168814
-0.183675
-0.191919
-0.193627
-0.188705
-0.177113
-0.15921
-0.135607
-0.106847
-0.0738405
-0.0381827
-0.00188248
0.0335744
0.0675155
0.0994097
0.12802
0.151621
0.168387
0.176778
0.176179
0.167291
0.152258
0.133879
0.11375
0.0927135
0.0713302
0.0499589
0.0288264
0.0080598
-0.0122351
-0.0319288
-0.0508438
-0.0687398
-0.0852992
-0.100189
-0.113172
-0.1242
-0.133479
-0.141378
-0.148121
-0.153912
-0.159034
-0.163835
-0.168608
-0.173405
-0.178077
-0.18232
-0.185704
-0.187735
-0.187955
-0.186034
-0.181852
-0.175583
-0.167689
-0.158712
-0.148949
-0.138593
-0.127843
-0.116949
-0.106232
-0.0960561
-0.0867954
-0.0788226
-0.0724729
-0.0679939
-0.0655416
-0.0652584
-0.0671166
-0.0707849
-0.0755554
-0.080465
-0.0846427
-0.0872591
-0.0874937
-0.0846127
-0.0779853
-0.0670595
-0.0515887
-0.0318887
-0.00898065
0.0153625
0.0391013
0.0610075
0.0805313
0.0976122
0.112514
0.12536
0.136171
0.145015
0.152111
0.15788
0.162965
0.168062
0.173537
0.179467
0.185677
0.191705
0.196784
0.199769
0.199118
0.193085
0.180001
0.158612
0.128445
0.0901297
0.0453982
-0.00361405
-0.0549371
-0.106413
-0.155724
-0.200948
-0.240665
-0.273966
-0.300401
-0.319728
-0.332098
-0.338305
-0.339532
-0.336443
-0.329311
-0.318448
-0.304249
-0.286934
-0.266718
-0.244098
-0.219972
-0.195529
-0.17171
-0.148773
-0.1264
-0.103815
-0.0799149
-0.0536519
-0.0243735
0.00808875
0.0433484
0.0804852
0.118348
0.155655
0.19096
0.222781
0.24993
0.271697
0.287982
0.29937
0.306844
0.310922
0.311723
0.309283
0.303701
0.295126
0.283411
0.267921
0.247881
0.222719
0.192219
0.156548
0.11658
0.0741259
0.0319082
-0.00715585
-0.0414886
-0.0706783
-0.0949767
-0.114466
-0.128843
-0.137843
-0.141525
-0.140369
-0.13516
-0.127107
-0.11783
-0.108801
-0.100873
-0.0944499
-0.0895659
-0.0858897
-0.0827723
-0.0794422
-0.0752682
-0.0697597
-0.0625772
-0.0535969
-0.0429561
-0.0310825
-0.0186124
-0.00615004
0.00584632
0.0170324
0.0271935
0.0362757
0.0444204
0.0519749
0.0594499
0.0673742
0.0762216
0.0863886
0.0981474
0.111585
0.12656
0.142744
0.159799
0.177289
0.194629
0.211088
0.225847
0.238168
0.247608
0.254102
0.258027
0.260221
0.261738
0.263242
0.264938
0.266669
0.267926
0.267886
0.265472
0.259476
0.248715
0.232221
0.209328
0.179558
0.142778
0.099596
0.05158
0.000964593
-0.0503923
-0.100991
-0.149429
-0.194394
-0.234791
-0.269817
-0.299035
-0.322265
-0.339181
-0.34946
-0.353019
-0.349774
-0.339227
-0.321006
-0.295232
-0.262526
-0.224305
-0.183019
-0.141553
-0.101732
-0.0645676
-0.0305499
0.000272411
0.027915
0.0522438
0.0731502
0.0907084
0.105086
0.116252
0.124215
0.129241
0.131888
0.132726
0.131896
0.129354
0.125086
0.119209
0.11204
0.104017
0.0954203
0.0863865
0.0770141
0.0674065
0.0577117
0.0481583
0.0390537
0.0307495
0.0236
0.0178814
0.0136986
0.0108542
0.00877009
0.00648601
0.00273437
-0.00376473
-0.0137461
-0.0273033
-0.0438128
-0.0618778
-0.0795235
-0.094878
-0.106771
-0.114733
-0.119018
-0.120586
-0.120667
-0.120159
-0.119777
-0.120187
-0.121992
-0.125752
-0.132024
-0.141276
-0.15372
-0.169164
-0.186885
-0.205625
-0.223807
-0.23964
-0.251149
-0.256363
-0.253652
-0.242269
-0.222816
-0.197359
-0.168871
-0.139707
-0.111518
-0.0855711
-0.0627405
-0.0433983
-0.027321
-0.013689
-0.00116095
0.011688
0.0254383
0.0397285
0.0534681
0.0650639
0.0729395
0.076191
0.0747591
0.0695338
0.062328
0.0552724
0.0499375
0.0474177
0.0483541
0.0527971
0.0601278
0.0691926
0.0788291
0.0880652
0.0960071
0.10182
0.104779
0.104275
0.0997692
0.0909785
0.0780605
0.0617184
0.0430298
0.0228601
0.00191522
-0.0190424
-0.0391195
-0.057297
-0.0725688
-0.0842314
-0.0919632
-0.0958929
-0.0965645
-0.0946307
-0.0907588
-0.0855871
-0.0793665
-0.0720071
-0.063269
-0.0528893
-0.0407068
-0.0267611
-0.0113409
0.00515361
0.0224269
0.0401679
0.0579515
0.0752188
0.0912777
0.105348
0.116643
0.124506
0.128534
0.128692
0.125299
0.118734
0.109226
0.0970548
0.0825802
0.0659621
0.0471488
0.0260953
0.00293194
-0.0219704
-0.048121
-0.0751308
-0.102568
-0.12986
-0.156283
-0.181028
-0.203366
-0.222823
-0.23925
-0.252891
-0.264306
-0.27401
-0.282187
-0.288846
-0.29392
-0.297191
-0.298102
-0.295925
-0.289962
-0.279708
-0.264952
-0.245631
-0.221588
-0.192916
-0.160259
-0.124928
-0.0886505
-0.0527654
-0.0182109
0.0142932
0.044148
0.0707183
0.0932633
0.111111
0.123819
0.131157
0.132832
0.128731
0.119268
0.105567
0.08913
0.070878
0.0514803
0.0316565
0.0122293
-0.00595093
-0.0222656
-0.0363268
-0.0479934
-0.0574187
-0.0649976
-0.0710896
-0.0758235
-0.0792618
-0.0815297
-0.082875
-0.0836382
-0.0840697
-0.0842826
-0.0843347
-0.084275
-0.0841621
-0.0840729
-0.0841006
-0.0843441
-0.0848892
-0.0857831
-0.0870068
-0.0884498
-0.0898924
-0.091003
-0.0913557
-0.0904722
-0.0878904
-0.0832577
-0.0764406
-0.0676391
-0.05748
-0.0470559
-0.0378676
-0.0314765
-0.0287818
-0.0298435
-0.0339261
-0.0397439
-0.0461764
-0.0525435
-0.0584529
-0.0637393
-0.0684548
-0.0728162
-0.0770833
-0.0814891
-0.0862255
-0.0914145
-0.0970768
-0.103112
-0.109319
-0.115466
-0.121305
-0.126571
-0.131006
-0.134384
-0.136534
-0.137299
-0.136379
-0.13341
-0.128119
-0.120465
-0.110758
-0.099766
-0.0887263
-0.0791619
-0.0723977
-0.0693934
-0.0706407
-0.0760017
-0.0845814
-0.0948465
-0.105152
-0.113964
-0.119791
-0.121251
-0.117242
-0.107114
-0.0907962
-0.0690926
-0.0438784
-0.0181047
0.00486257
0.0227621
0.0347138
0.041042
0.0430244
0.0419922
0.0386594
0.0334181
0.0265686
0.0183943
0.00923358
-0.000608819
-0.0111007
-0.0223438
-0.0344259
-0.0473564
-0.0610854
-0.0756427
-0.0910327
-0.107133
-0.123634
-0.139992
-0.155406
-0.168821
-0.178981
-0.184582
-0.184461
-0.177792
-0.164178
-0.143803
-0.117712
-0.0877754
-0.0559541
-0.023727
0.00761859
0.0368166
0.0626716
0.0841615
0.100597
0.111787
0.118198
0.121016
0.121743
0.121182
0.119719
0.117613
0.115077
0.112367
0.109799
0.107682
0.106175
0.105322
0.10507
0.105265
0.105711
0.106312
0.107024
0.107804
0.108594
0.109316
0.109897
0.110274
0.110377
0.110123
0.109392
0.107993
0.105691
0.10224
0.0974116
0.0909682
0.0825618
0.0718617
0.0586864
0.0430741
0.025209
0.00528629
-0.0163035
-0.0388247
-0.0611887
-0.0821047
-0.100262
-0.114387
-0.123375
-0.126445
-0.123245
-0.114089
-0.100172
-0.0833728
-0.0654464
-0.0477278
-0.0313468
-0.0172729
-0.00619271
0.00169252
0.00678741
0.0101489
0.0134706
0.0188031
0.0278798
0.0417215
0.0605661
0.0837612
0.109831
0.136981
0.163531
0.187805
0.208144
0.223151
0.232054
0.234834
0.232105
0.224616
0.213155
0.198826
0.183134
0.167559
0.152603
0.138
0.122995
0.106612
0.088157
0.0673812
0.0445275
0.0202548
-0.00468679
-0.0294475
-0.0530183
-0.0742842
-0.0921596
-0.105751
-0.114524
-0.118458
-0.118017
-0.113779
-0.106395
-0.0968244
-0.0863831
-0.0764149
-0.0678025
-0.0610611
-0.0563973
-0.0536906
-0.0525336
-0.052454
-0.053214
-0.0546965
-0.0567942
-0.0593512
-0.062108
-0.0646724
-0.0665599
-0.067339
-0.0666676
-0.0643135
-0.0602065
-0.0544852
-0.0474762
-0.0394687
-0.030407
-0.0200537
-0.00816042
0.00539985
0.02046
0.0363484
0.0518483
0.0653094
0.07504
0.079844
0.0791495
0.0731141
0.0626534
0.0489571
0.032805
0.0148608
-0.00408865
-0.0231854
-0.041756
-0.0593941
-0.075837
-0.0908869
-0.104261
-0.11534
-0.123279
-0.127182
-0.126252
-0.119916
-0.10782
-0.0900815
-0.067187
-0.0394412
-0.0073706
0.0279192
0.0646603
0.100807
0.135034
0.166557
0.194965
0.220086
0.241567
0.258613
0.270295
0.275866
0.275045
0.26827
0.25683
0.242369
0.225629
0.20683
0.186077
0.163493
0.139351
0.114059
0.0879492
0.0612442
0.0341696
0.0069922
-0.0200294
-0.0466239
-0.0725092
-0.0974106
-0.121109
-0.143475
-0.164508
-0.184324
-0.203009
-0.220419
-0.236291
-0.250354
-0.262402
-0.272305
-0.279931
-0.285285
-0.288639
-0.290563
-0.291737
-0.292475
-0.292831
-0.292722
-0.291955
-0.290277
-0.287419
-0.283156
-0.277352
-0.269999
-0.261109
-0.250484
-0.237825
-0.222878
-0.205507
-0.185731
-0.163592
-0.139107
-0.11237
-0.0835617
-0.0529446
-0.0210354
0.0113035
0.0429067
0.0726086
0.0994985
0.122908
0.14233
0.157198
0.166762
0.170369
0.167579
0.158212
0.142692
0.122317
0.098989
0.0742921
0.049521
0.0259401
0.00478654
-0.0129023
-0.0265552
-0.0361737
-0.0424136
-0.0466144
-0.0504456
-0.0550335
-0.060879
-0.0680315
-0.0761534
-0.0847198
-0.0933845
-0.101972
-0.11045
-0.118952
-0.127765
-0.137308
-0.148073
-0.160527
-0.174968
-0.191402
-0.209416
-0.228089
-0.245965
-0.261129
-0.271543
-0.275665
-0.272759
-0.263049
-0.247702
-0.228278
-0.206271
-0.183268
-0.160684
-0.139218
-0.118978
-0.0995828
-0.0802725
-0.0601315
-0.0382515
-0.0138017
0.013836
0.0449849
0.0796156
0.117207
0.156614
0.196077
0.233579
0.267706
0.297775
0.32375
0.345923
0.364193
0.37813
0.387303
0.39146
0.390591
0.384995
0.375491
0.363187
0.348759
0.332729
0.315727
0.298511
0.281881
0.266223
0.250964
0.23478
0.216091
0.193853
0.167795
0.138438
0.10706
0.0752143
0.0440471
0.014474
-0.0125813
-0.0359556
-0.0543593
-0.0666505
-0.0720422
-0.0702648
-0.0619009
-0.0486314
-0.0330874
-0.0179758
-0.00532114
0.00336991
0.00709328
0.00548665
-0.00111656
-0.0118422
-0.0252506
-0.0392126
-0.051034
-0.0581206
-0.0588835
-0.0527974
-0.0404098
-0.0232029
-0.00278947
0.0196882
0.0432822
0.0670655
0.0902891
0.112718
0.134542
0.15622
0.17834
0.20133
0.225236
0.249722
0.274158
0.297857
0.320297
0.341107
0.360078
0.377134
0.392124
0.404537
0.413666
0.418768
0.419138
0.414056
0.402829
0.385119
0.361204
0.331809
0.297454
0.258878
0.217381
0.174831
0.133125
0.0934277
0.0563629
0.0223122
-0.00826817
-0.0348931
-0.0572432
-0.0752295
-0.0888314
-0.0978451
-0.102209
-0.10228
-0.0988066
-0.0925208
-0.0840755
-0.0743107
-0.0643338
-0.0553126
-0.0481324
-0.0434195
-0.0415267
-0.0424907
-0.0460625
-0.0516322
-0.058179
-0.0645292
-0.0699587
-0.0741056
-0.0768738
-0.0784263
-0.0791086
-0.0792124
-0.0786684
-0.077125
-0.0740495
-0.0688392
-0.0609721
-0.0501199
-0.0362169
-0.0193728
0.000294755
0.0224532
0.0464142
0.0712232
0.0960501
0.120327
0.14365
0.165732
0.186346
0.205203
0.222043
0.236731
0.249341
0.260201
0.269876
0.27888
0.287308
0.294951
0.30142
0.306207
0.308777
0.308647
0.305486
0.299231
0.290168
0.278756
0.265103
0.249041
0.230384
0.209103
0.185464
0.16005
0.133608
0.107111
0.0818276
0.0592409
0.0407601
0.027418
0.0196915
0.0173447
0.0193805
0.0244731
0.0316071
0.0398193
0.0480167
0.0551524
0.0606133
0.0641918
0.0660258
0.0665712
0.0663945
0.0659087
0.06544
0.0652914
0.0657424
0.0670498
0.0694285
0.0730279
0.0778893
0.0838971
0.0907306
0.0978446
0.104527
0.110097
0.114014
0.115888
0.115528
0.113008
0.108689
0.103099
0.0965557
0.0890454
0.0803687
0.0702482
0.0584106
0.04465
0.02882
0.0109249
-0.00876429
-0.029656
-0.0509787
-0.0719008
-0.0914899
-0.108739
-0.122715
-0.1328
-0.138886
-0.141437
-0.141326
-0.139238
-0.135508
-0.130369
-0.124113
-0.117177
-0.110191
-0.103895
-0.0988965
-0.0956126
-0.0942527
-0.0947556
-0.0967374
-0.0995295
-0.102426
-0.104882
-0.106438
-0.106676
-0.105234
-0.101773
-0.0958922
-0.087252
-0.0757126
-0.0614318
-0.04486
-0.0264862
-0.00665968
0.0142172
0.0355606
0.056609
0.0765723
0.0946998
0.110279
0.122679
0.131371
0.135873
0.13591
0.131596
0.123541
0.112522
0.0986645
0.0817684
0.0616729
0.0384404
0.0125001
-0.0154222
-0.0444759
-0.0735277
-0.101103
-0.125608
-0.145848
-0.161185
-0.171565
-0.1773
-0.178416
-0.174798
-0.166561
-0.154256
-0.13881
-0.121088
-0.101969
-0.0824149
-0.063203
-0.0448379
-0.0276585
-0.0118964
0.00225314
0.0144783
0.0243969
0.0316622
0.036051
0.0374341
0.035582
0.0302976
0.0216216
0.00994106
-0.00422986
-0.0208552
-0.0400991
-0.0620254
-0.0864505
-0.112866
-0.140437
-0.167879
-0.193444
-0.215116
-0.231127
-0.240457
-0.242955
-0.239353
-0.23077
-0.217981
-0.201765
-0.183087
-0.162772
-0.141293
-0.11898
-0.0961667
-0.0731452
-0.0500915
-0.0271475
-0.00450456
0.0176046
0.0389155
0.059162
0.0780897
0.095491
0.111146
0.124638
0.135352
0.142691
0.146249
0.145924
0.141887
0.134686
0.125431
0.115773
0.107501
0.102183
0.101152
0.105428
0.115582
0.131686
0.153115
0.178392
0.205517
0.232943
0.259613
0.284741
0.307765
0.32835
0.346364
0.361877
0.375221
0.387007
0.39795
0.408416
0.418257
0.426964
0.433784
0.437837
0.438265
0.434371
0.425776
0.412605
0.395614
0.375855
0.35384
0.329822
0.304089
0.277063
0.249321
0.221479
0.194287
0.168664
0.145637
0.126151
0.110868
0.10005
0.0935086
0.090838
0.0917675
0.0958835
0.102426
0.110395
0.119033
0.127957
0.136964
0.145918
0.154676
0.163032
0.170676
0.177183
0.182035
0.184644
0.184339
0.180236
0.171339
0.156851
0.136478
0.110694
0.0807962
0.0485972
0.0164291
-0.01317
-0.0384733
-0.0589894
-0.0749968
-0.0866851
-0.0939281
-0.096623
-0.0948151
-0.0885863
-0.0781452
-0.0640941
-0.047449
-0.0292887
-0.0106771
0.00716627
0.0229071
0.0354113
0.0440527
0.0487896
0.05022
0.0495856
0.0483017
0.0469243
0.0453516
0.0430891
0.0394599
0.0338949
0.0260202
0.0157472
0.00336361
-0.0105678
-0.0255749
-0.0413993
-0.0578614
-0.0748004
-0.0920722
-0.109599
-0.127323
-0.145168
-0.163016
-0.180686
-0.197935
-0.214467
-0.229965
-0.244136
-0.256774
-0.267825
-0.277448
-0.286043
-0.294227
-0.302632
-0.311452
-0.320372
-0.328633
-0.335079
-0.338279
-0.33673
-0.329083
-0.314385
-0.292287
-0.263196
-0.228546
-0.190772
-0.152497
-0.115348
-0.0802083
-0.0474071
-0.0167269
0.0124685
0.0408599
0.0688804
0.0967665
0.124599
0.152292
0.179622
0.206245
0.231754
0.255718
0.277722
0.297286
0.313762
0.326509
0.335078
0.339278
0.339133
0.334941
0.327445
0.317682
0.306394
0.293838
0.280025
0.26485
0.248131
0.229677
0.209411
0.187487
0.164287
0.140247
0.115706
0.0910188
0.0666098
0.0429881
0.0207192
0.000397074
-0.0174286
-0.0323477
-0.0441843
-0.0529751
-0.0589158
-0.0625132
-0.0646894
-0.0666295
-0.0693151
-0.0733078
-0.0788093
-0.0856477
-0.0932577
-0.100697
-0.10683
-0.110699
-0.111585
-0.109094
-0.103281
-0.0947041
-0.0843163
-0.073082
-0.0616376
-0.0504196
-0.0397553
-0.0298905
-0.0210365
-0.0133419
-0.00685625
-0.00149606
0.00298318
0.00698062
0.0109396
0.0151885
0.0199739
0.0254797
0.0318087
0.0389738
0.0469046
0.0554149
0.0641671
0.0726615
0.0802773
0.0863874
0.0904503
0.0920817
0.091136
0.087784
0.0824425
0.0755232
0.0675588
0.0593032
0.0517044
0.0457183
0.0418468
0.0399431
0.0392916
0.0388959
0.0380335
0.036221
0.0331758
0.0288803
0.0236148
0.0179506
0.0126374
0.00853107
0.00653629
0.00750155
0.0120631
0.0204695
0.0324076
0.0468849
0.0623009
0.0769346
0.0893764
0.0984784
0.103383
0.1036
0.0990005
0.0899648
0.0775072
0.0630697
0.0477973
0.0322946
0.0168493
0.00157129
-0.0135166
-0.0283445
-0.0427652
-0.056535
-0.0693175
-0.0807107
-0.0903128
-0.0978064
-0.103069
-0.106254
-0.107805
-0.108217
-0.107703
-0.106338
-0.104206
-0.101448
-0.0983231
-0.0952211
-0.0926357
-0.0910353
-0.0907392
-0.0918799
-0.0943605
-0.097813
-0.101671
-0.105399
-0.108501
-0.110492
-0.110917
-0.109405
-0.105732
-0.0998649
-0.0918861
-0.081725
-0.0692536
-0.0545518
-0.0381335
-0.0210662
-0.00488067
0.00859913
0.0183923
0.0257221
0.0311678
0.034669
0.0360576
0.0351087
0.0317093
0.0259506
0.0182445
0.00931092
-8.53891e-05
-0.0095445
-0.0188915
-0.0280662
-0.0370613
-0.0458315
-0.0543041
-0.0623972
-0.0700352
-0.0771728
-0.0838172
-0.0900501
-0.0960593
-0.102153
-0.108752
-0.116317
-0.12518
-0.135489
-0.147168
-0.159893
-0.173097
-0.186159
-0.198818
-0.211114
-0.223305
-0.235801
-0.249
-0.263181
-0.27844
-0.29461
-0.311201
-0.327378
-0.342047
-0.353968
-0.361828
-0.364364
-0.360445
-0.349046
-0.329443
-0.301634
-0.266622
-0.226289
-0.182529
-0.136908
-0.0905518
-0.0437914
0.00357751
0.0519631
0.101599
0.151935
0.201616
0.248561
0.29016
0.323825
0.348064
0.363047
0.370468
0.372484
0.370292
0.364671
0.356429
0.346426
0.335297
0.322999
0.309077
0.292939
0.274091
0.252362
0.228009
0.201721
0.174291
0.146172
0.117607
0.0887559
0.0597168
0.0305708
0.00140605
-0.0276356
-0.0563442
-0.0844101
-0.111422
-0.136853
-0.160103
-0.180582
-0.197821
-0.211485
-0.221292
-0.227222
-0.229708
-0.229649
-0.22805
-0.225492
-0.222324
-0.21882
-0.215195
-0.211567
-0.207878
-0.20394
-0.199481
-0.194174
-0.187675
-0.179658
-0.169887
-0.15828
-0.144911
-0.129927
-0.113609
-0.0964622
-0.0792386
-0.0628077
-0.0478227
-0.0346588
-0.0234263
-0.0139663
-0.00597983
0.000627079
0.00577066
0.00932849
0.0112381
0.0115691
0.010559
0.00851183
0.00564151
0.00216318
-0.00163953
-0.00547431
-0.00919263
-0.0127996
-0.0164032
-0.0201904
-0.0243879
-0.0292189
-0.0348335
-0.0412296
-0.0480931
-0.0545804
-0.0593818
-0.0609012
-0.0576044
-0.0486917
-0.0344545
-0.016291
0.00387996
0.0249055
0.0461061
0.0669463
0.0868917
0.105125
0.120582
0.132103
0.138668
0.139745
0.135609
0.127457
0.117154
0.106425
0.0968272
0.0898766
0.0869174
0.0887667
0.0953779
0.105783
0.118136
0.130246
0.140819
0.149597
0.157129
0.164549
0.173042
0.183391
0.195928
0.210473
0.226265
0.242098
0.256764
0.269285
0.278914
0.28519
0.287932
0.286999
0.282147
0.273295
0.260751
0.245325
0.228289
0.210915
0.193816
0.177116
0.160603
0.143813
0.126175
0.107171
0.0864193
0.0637798
0.039456
0.0140706
-0.0113272
-0.0354445
-0.0571743
-0.0756433
-0.0902866
-0.100968
-0.107989
-0.111812
-0.112879
-0.111808
-0.109508
-0.106975
-0.104803
-0.10328
-0.102506
-0.102406
-0.102781
-0.103419
-0.10424
-0.105254
-0.10652
-0.108104
-0.110029
-0.112214
-0.114401
-0.116105
-0.116604
-0.114991
-0.110267
-0.101513
-0.0881115
-0.069918
-0.0473929
-0.021409
0.0074263
0.0386664
0.0717224
0.105725
0.139593
0.17235
0.203115
0.230988
0.254946
0.273841
0.286638
0.29268
0.29185
0.284503
0.27143
0.254007
0.233775
0.211721
0.188591
0.165136
0.14203
0.119594
0.0978111
0.0764733
0.0553095
0.0342541
0.0136336
-0.00587337
-0.0233114
-0.037522
-0.0472498
-0.0513145
-0.048916
-0.0399215
-0.0250803
-0.00585873
0.0163585
0.0404966
0.0654662
0.090034
0.112889
0.132993
0.150045
0.164441
0.177176
0.18954
0.202387
0.215803
0.22922
0.241485
0.250971
0.255813
0.254393
0.245915
0.230594
0.209557
0.184116
0.155227
0.123881
0.0912642
0.0585211
0.0267232
-0.00300607
-0.0293919
-0.05095
-0.0661426
-0.0736794
-0.072857
-0.0639011
-0.0481996
-0.028009
-0.00524237
0.0188885
0.0434283
0.0674512
0.0899883
0.109995
0.126391
0.138159
0.144524
0.145142
0.140296
0.130857
0.117826
0.102219
0.0851329
0.0673678
0.0493269
0.0311876
0.013018
-0.00518157
-0.0234581
-0.041917
-0.0606728
-0.0798178
-0.0993785
-0.119277
-0.139272
-0.158979
-0.177897
-0.195478
-0.211243
-0.224999
-0.236897
-0.247427
-0.257264
-0.266817
-0.27588
-0.283765
-0.289429
-0.291677
-0.289463
-0.282082
-0.269255
-0.251109
-0.228372
-0.202562
-0.175711
-0.149446
-0.124686
-0.10202
-0.0819051
-0.0646108
-0.0502396
-0.03889
-0.0306147
-0.0253937
-0.0233329
-0.024782
-0.0301444
-0.039811
-0.0540694
-0.0728156
-0.0953414
-0.12034
-0.146427
-0.172919
-0.199562
-0.226302
-0.25314
-0.279883
-0.305963
-0.330472
-0.352266
-0.370188
-0.383363
-0.391307
-0.393843
-0.390714
-0.381806
-0.367516
-0.348935
-0.327521
-0.304177
-0.279566
-0.25444
-0.2297
-0.206428
-0.185737
-0.168454
-0.155029
-0.145457
-0.139174
-0.135215
-0.132742
-0.13122
-0.130207
-0.12927
-0.128005
-0.126181
-0.123734
-0.120734
-0.117369
-0.113919
-0.110716
-0.10803
-0.105922
-0.104241
-0.102621
-0.100484
-0.0970786
-0.0915482
-0.0830444
-0.0708842
-0.0547262
-0.0347758
-0.0119291
0.0121741
0.0355146
0.0565936
0.0745067
0.0886777
0.0987859
0.104849
0.107138
0.105656
0.099818
0.0888
0.0719043
0.0488465
0.0200135
-0.0136071
-0.050937
-0.0905202
-0.130495
-0.169212
-0.205739
-0.239675
-0.270933
-0.299329
-0.324322
-0.345251
-0.36156
-0.372942
-0.379354
-0.381092
-0.379043
-0.374805
-0.370251
-0.366491
-0.364033
-0.362956
-0.362894
-0.363123
-0.36278
-0.361082
-0.357334
-0.350986
-0.341668
-0.32916
-0.31346
-0.294956
-0.2745
-0.253322
-0.232579
-0.212996
-0.194987
-0.178796
-0.164689
-0.153081
-0.144389
-0.138903
-0.136668
-0.137436
-0.140837
-0.146651
-0.154575
-0.164049
-0.174264
-0.184427
-0.193976
-0.202479
-0.209573
-0.214902
-0.217985
-0.218345
-0.215663
-0.209925
-0.201536
-0.191376
-0.180536
-0.169673
-0.159142
-0.149141
-0.139704
-0.130739
-0.122076
-0.11359
-0.105205
-0.096893
-0.0886515
-0.0805087
-0.0724957
-0.064643
-0.0569685
-0.0495042
-0.0422992
-0.0353979
-0.0288096
-0.0225047
-0.0163918
-0.0103358
-0.00418387
0.00219468
0.00890295
0.0159903
0.0234331
0.0311036
0.0387646
0.046061
0.0525432
0.0577043
0.0610557
0.0622159
0.0610262
0.057654
0.0526906
0.0471606
0.0422975
0.0390118
0.0379132
0.0393137
0.0431528
0.0489576
0.0559764
0.0635898
0.071456
0.0793828
0.087259
0.0950069
0.102542
0.109725
0.116326
0.121962
0.125998
0.127522
0.125493
0.118952
0.107253
0.0903284
0.0689018
0.0445947
0.0195026
-0.00486683
-0.027408
-0.0472498
-0.063807
-0.0768122
-0.086226
-0.091928
-0.0938165
-0.0920062
-0.0869222
-0.0790629
-0.0683597
-0.0544988
-0.0372621
-0.0167526
0.00643511
0.031129
0.0559481
0.080074
0.102731
0.123088
0.140387
0.153965
0.163317
0.168288
0.16928
0.167336
0.163987
0.160569
0.15767
0.155313
0.153089
0.150234
0.1458
0.139006
0.129555
0.117702
0.104287
0.0906341
0.0780491
0.06715
0.0579277
0.0498429
0.0419677
0.033454
0.0239197
0.0134244
0.00244854
-0.00811594
-0.0171404
-0.023656
-0.0271068
-0.0274122
-0.0250295
-0.0207804
-0.015319
-0.00914722
-0.00278182
0.00319997
0.00816816
0.0115191
0.0127572
0.0115378
0.00765263
0.00093638
-0.0086218
-0.0206975
-0.0345281
-0.0488848
-0.0623709
-0.0740909
-0.0835937
-0.090797
-0.0960043
-0.0997307
-0.102294
-0.103806
-0.104285
-0.103695
-0.101923
-0.0986389
-0.0933154
-0.085408
-0.0745296
-0.0606241
-0.0441061
-0.0259425
-0.00751245
0.00994583
0.0257369
0.0394191
0.0507126
0.0596024
0.0663957
0.0716369
0.0757637
0.0788485
0.080754
0.0812671
0.080202
0.0775011
0.0733319
0.068083
0.0622069
0.0561828
0.0505937
0.0461344
0.0435644
0.0436121
0.046848
0.0535272
0.063426
0.0757111
0.088905
0.101139
0.110871
0.117241
0.120053
0.119802
0.117613
0.114781
0.11215
0.110211
0.109193
0.109043
0.109457
0.109988
0.110152
0.109449
0.107414
0.103687
0.0980888
0.0906908
0.0817923
0.071768
0.0610361
0.0501402
0.0397773
0.0307652
0.0239281
0.0198465
0.0186378
0.0199292
0.0229978
0.0271997
0.0320999
0.0373102
0.0423993
0.0468575
0.050089
0.0514412
0.050282
0.0460919
0.0385807
0.0277988
0.0142133
-0.00150227
-0.0190306
-0.0381839
-0.0586748
-0.0800295
-0.101593
-0.122691
-0.142614
-0.160596
-0.175855
-0.187676
-0.195498
-0.198967
-0.198109
-0.193461
-0.18583
-0.175616
-0.16287
-0.14762
-0.130034
-0.110539
-0.0897596
-0.0682001
-0.0461516
-0.0238517
-0.00154572
0.0204784
0.0419228
0.0625448
0.082181
0.100757
0.118316
0.134953
0.150661
0.165356
0.178966
0.191484
0.202979
0.213522
0.223136
0.231874
0.239886
0.24743
0.254847
0.262399
0.270068
0.277586
0.284501
0.290243
0.294262
0.296144
0.295684
0.292962
0.288381
0.282542
0.275839
0.268319
0.259798
0.249942
0.238327
0.224509
0.20807
0.188536
0.165273
0.137725
0.105645
0.0691535
0.0285969
-0.0151887
-0.060717
-0.105992
-0.149156
-0.189024
-0.225006
-0.256942
-0.284813
-0.30871
-0.329025
-0.346526
-0.362078
-0.375966
-0.388077
-0.398098
-0.405441
-0.409049
-0.407663
-0.400179
-0.385954
-0.365114
-0.33874
-0.308643
-0.276385
-0.242969
-0.209118
-0.175406
-0.142315
-0.110286
-0.0796821
-0.0507318
-0.023494
0.00212582
0.0263673
0.0493942
0.0708609
0.0900589
0.106142
0.118289
0.125941
0.129063
0.128195
0.123931
0.116564
0.106374
0.0938463
0.0796069
0.064098
0.0475062
0.0299543
0.0116262
-0.00716667
-0.0259674
-0.0441676
-0.0610238
-0.0757358
-0.0876476
-0.0965667
-0.102861
-0.107485
-0.111844
-0.117231
-0.124364
-0.133443
-0.144194
-0.155869
-0.167515
-0.178515
-0.18855
-0.197515
-0.205523
-0.21276
-0.219179
-0.224481
-0.228215
-0.229845
-0.228857
-0.224879
-0.217837
-0.208066
-0.196368
-0.183802
-0.171081
-0.158324
-0.145222
-0.131123
-0.115133
-0.0963006
-0.0739228
-0.0476982
-0.0178967
0.0145404
0.0480667
0.081141
0.113029
0.143617
0.173144
0.201825
0.229342
0.254967
0.277691
0.296371
0.309937
0.31766
0.319377
0.315693
0.307743
0.296437
0.282762
0.26798
0.253323
0.239568
0.227131
0.21615
0.206481
0.197754
0.189546
0.181525
0.17338
0.164786
0.155399
0.144859
0.132825
0.119017
0.10328
0.08565
0.0663718
0.0457635
0.0240188
0.00136018
-0.0218144
-0.0448635
-0.0668611
-0.0866441
-0.102942
-0.1145
-0.120249
-0.119484
-0.111939
-0.0979095
-0.0785019
-0.0555379
-0.0307194
-0.00498417
0.0211429
0.0473023
0.0731977
0.0985101
0.122816
0.145523
0.165894
0.183128
0.196466
0.205296
0.209131
0.207544
0.200508
0.188654
0.173309
0.155975
0.137561
0.118667
0.0998146
0.081481
0.0641135
0.0480484
0.0334702
0.0203847
0.00860024
-0.00222764
-0.0124001
-0.0221327
-0.0316411
-0.041199
-0.0511495
-0.0618967
-0.0738401
-0.0872481
-0.102159
-0.118326
-0.135179
-0.151829
-0.167246
-0.180663
-0.191683
-0.200285
-0.206841
-0.211956
-0.216028
-0.219249
-0.221726
-0.223528
-0.224708
-0.225246
-0.22498
-0.223687
-0.221175
-0.217331
-0.212176
-0.20579
-0.198106
-0.189024
-0.178538
-0.166801
-0.154195
-0.141343
-0.129012
-0.117854
-0.108337
-0.100721
-0.0949888
-0.0907884
-0.0874258
-0.0840375
-0.080011
-0.0749465
-0.0686268
-0.0610549
-0.0524771
-0.0433599
-0.0342424
-0.0255193
-0.0174676
-0.0102569
-0.00392991
0.00161031
0.00658793
0.0112536
0.0156626
0.0197236
0.0232448
0.0259704
0.0276315
0.0280152
0.027037
0.0248126
0.0216988
0.0182453
0.0149809
0.0123236
0.0105999
0.010029
0.0106752
0.0124131
0.014907
0.0177136
0.0205092
0.0230553
0.0251603
0.0266977
0.0276158
0.027959
0.0278705
0.0275748
0.027296
0.027228
0.0275404
0.028377
0.0298351
0.031949
0.0346669
0.0378603
0.0413702
0.045088
0.04892
0.0527644
0.0565018
0.059996
0.0630992
0.0656796
0.0676582
0.0690321
0.0698928
0.0704434
0.0709912
0.0718853
0.0733673
0.0755357
0.0783346
0.0815357
0.0847318
0.0873626
0.0888115
0.0885952
0.08646
0.0824561
0.0770094
0.0709516
0.0654193
0.0615041
0.0599372
0.0610652
0.0648122
0.0706488
0.0778112
0.0858327
0.0944193
0.103321
0.112308
0.12115
0.129626
0.137584
0.14499
0.151905
0.15847
0.164894
0.171422
0.178267
0.185455
0.192636
0.199116
0.203921
0.205882
0.203799
0.196657
0.183926
0.165863
0.143648
0.119136
0.0939881
0.0693538
0.0460935
0.0248681
0.00615944
-0.00961029
-0.0219459
-0.0304546
-0.0350442
-0.0360752
-0.0344654
-0.0315752
-0.0286517
-0.0263789
-0.0250416
-0.0246341
-0.0249079
-0.0255148
-0.0261838
-0.0267118
-0.0269553
-0.0268471
-0.0264057
-0.0257388
-0.0250371
-0.0245594
-0.0246052
-0.0254775
-0.0274333
-0.0306282
-0.0350565
-0.0405019
-0.0465116
-0.0524449
-0.0576613
-0.0616897
-0.0642289
-0.0651724
-0.0646407
-0.0629857
-0.0606495
-0.0578284
-0.0544541
-0.0502843
-0.0449589
-0.0380681
-0.0292259
-0.0180993
-0.00436286
0.012114
0.0310806
0.0517845
0.0729271
0.0928804
0.110259
0.124054
0.133652
0.13891
0.140042
0.137172
0.130464
0.120376
0.107774
0.0937027
0.0787665
0.0633287
0.0477035
0.0322023
0.0171418
0.00276089
-0.0108546
-0.0237614
-0.0361524
-0.0483475
-0.0606967
-0.0733732
-0.0863944
-0.0996454
-0.112879
-0.125726
-0.137741
-0.148485
-0.157599
-0.164852
-0.170183
-0.173683
-0.175417
-0.175306
-0.173265
-0.16932
-0.163665
-0.156624
-0.1484
-0.138906
-0.127913
-0.115198
-0.100632
-0.084251
-0.0662614
-0.0471269
-0.0275982
-0.0085497
0.00945671
0.0262268
0.0418821
0.0568271
0.0716037
0.0865261
0.101528
0.116215
0.129917
0.141765
0.150871
0.156636
0.158914
0.158084
0.154974
0.150386
0.144751
0.138313
0.13128
0.123867
0.11633
0.108927
0.101852
0.0952669
0.0893246
0.0841615
0.0799068
0.0767284
0.0748435
0.0744244
0.0755027
0.0778968
0.0811691
0.0847241
0.0880812
0.0908238
0.0925656
0.0929836
0.0918573
0.0890994
0.0847313
0.0788811
0.0718624
0.0642123
0.0566406
0.0497876
0.0438953
0.0388378
0.0341594
0.0291217
0.0228783
0.0147234
0.00415947
-0.00901054
-0.0245729
-0.0418365
-0.059751
-0.0773219
-0.0937832
-0.108527
-0.121099
-0.131221
-0.138722
-0.143254
-0.144135
-0.140607
-0.132129
-0.118697
-0.101201
-0.0813409
-0.060909
-0.0408283
-0.0214112
-0.0026507
0.0155646
0.0332558
0.0503774
0.0668146
0.0823768
0.0967795
0.1096
0.12023
0.128012
0.132408
0.133157
0.130397
0.124627
0.116292
0.105497
0.0922839
0.0768506
0.0596871
0.0416528
0.0239426
0.00778731
-0.00598287
-0.0169561
-0.0251807
-0.0312451
-0.036285
-0.0416935
-0.0484614
-0.0572142
-0.0682384
-0.0814055
-0.0961379
-0.111492
-0.126505
-0.140483
-0.152965
-0.163707
-0.172708
-0.180116
-0.18597
-0.190126
-0.192386
-0.192602
-0.19074
-0.18695
-0.181644
-0.175527
-0.169399
-0.163665
-0.158291
-0.152897
-0.146817
-0.139213
-0.129303
-0.116464
-0.100374
-0.0811754
-0.0595986
-0.036994
-0.0150469
0.00495597
0.0222375
0.0364598
0.0476391
0.0558233
0.0608816
0.062738
0.0615697
0.0579199
0.052708
0.0469455
0.0413085
0.0362732
0.0322145
0.0293999
0.0279716
0.0279103
0.0290078
0.0308816
0.0331144
0.0354511
0.037732
0.0398367
0.0416696
0.0431515
0.0442132
0.04481
0.0449292
0.0446084
0.043948
0.0431044
0.0422318
0.0414381
0.0408018
0.040384
0.0402217
0.0403221
0.0406523
0.0411424
0.041699
0.0422133
0.0425571
0.0425978
0.0422128
0.04132
0.0399062
0.0380643
0.0360178
0.03414
0.0329458
0.0330649
0.0351709
0.0398822
0.0476088
0.0583738
0.0716765
0.0864448
0.101136
0.114283
0.125221
0.133998
0.141249
0.147922
0.154629
0.161569
0.168631
0.175441
0.181487
0.186398
0.190023
0.192441
0.19395
0.194882
0.195344
0.195304
0.194667
0.1933
0.191081
0.187924
0.183813
0.178759
0.172754
0.165837
0.158169
0.150065
0.142002
0.134586
0.128386
0.123588
0.119849
0.116368
0.112127
0.106375
0.0987491
0.0892814
0.0784499
0.0671817
0.0567009
0.0480654
0.0417709
0.037761
0.0354542
0.033949
0.0325591
0.0308675
0.028647
0.0258557
0.0226285
0.0192101
0.015853
0.0128178
0.0103619
0.00870371
0.00798619
0.00823867
0.00935569
0.0111214
0.0133345
0.0159026
0.0187884
0.0219665
0.0253969
0.0290007
0.0326411
0.0361304
0.0392668
0.0418364
0.0436258
0.0444552
0.0442166
0.0428959
0.0405409
0.0372538
0.0332635
0.0289737
0.0249233
0.0216498
0.0196536
0.0193806
0.0211582
0.0251295
0.0311977
0.0391327
0.0488736
0.0603608
0.0733577
0.0873555
0.101512
0.114664
0.125551
0.133286
0.137411
0.137942
0.135439
0.130812
0.124709
0.117323
0.108615
0.0984485
0.0866716
0.0731573
0.0579392
0.0413216
0.0239379
0.00667129
-0.00967293
-0.0246601
-0.0381981
-0.0505327
-0.0622391
-0.0740756
-0.0865872
-0.0999231
-0.113867
-0.127855
-0.141017
-0.152368
-0.161222
-0.167397
-0.171189
-0.173113
-0.173312
-0.171571
-0.167533
-0.160834
-0.151244
-0.138784
-0.123766
-0.106617
-0.0877624
-0.0677762
-0.0473997
-0.0273255
-0.00812111
0.00973703
0.0258659
0.0400219
0.0521063
0.0621209
0.0702276
0.0768232
0.0824742
0.0876251
0.0923663
0.096561
0.0999477
0.102215
0.103085
0.102425
0.10035
0.0972817
0.0939528
0.0913134
0.0901958
0.0908756
0.0930647
0.0959369
0.0981678
0.0981833
0.0947534
0.0875224
0.0770549
0.0648241
0.0529257
0.0432402
0.0370202
0.034894
0.036793
0.0418845
0.0488537
0.0566702
0.0646296
0.0721851
0.0789179
0.0845318
0.0888646
0.0918863
0.0936893
0.0943718
0.0938056
0.0917293
0.0878778
0.082078
0.0743667
0.065079
0.0548982
0.0447014
0.0351482
0.0266245
0.0192965
0.0130876
0.00767532
0.00255922
-0.00272356
-0.00850129
-0.0149751
-0.0222015
-0.0300548
-0.0382058
-0.0461145
-0.053063
-0.058247
-0.0609628
-0.060756
-0.0575352
-0.0516621
-0.0439925
-0.0356011
-0.0271396
-0.0189608
-0.0112562
-0.00409474
0.00247069
0.00833561
0.0133651
0.0174247
0.0204069
0.0222687
0.0230592
0.0228899
0.0217899
0.0196937
0.0165411
0.0123621
0.00732641
0.00175444
-0.00398951
-0.0096546
-0.0150617
-0.020071
-0.0245929
-0.0285938
-0.0321035
-0.0351768
-0.037802
-0.0399121
-0.0414358
-0.0423324
-0.04263
-0.042449
-0.0420151
-0.0416087
-0.0414388
-0.0416166
-0.0421601
-0.0429766
-0.0438515
-0.0444462
-0.0443272
-0.0430301
-0.0401239
-0.0352864
-0.0283986
-0.0196307
-0.00949749
0.00124581
0.0119253
0.0219653
0.0308263
0.0380155
0.0430919
0.0456533
0.04545
0.0425087
0.0372092
0.0302383
0.0222608
0.0136741
0.00475564
-0.00422785
-0.0129913
-0.0212202
-0.0286207
-0.0349946
-0.0402561
-0.0444438
-0.0477101
-0.0502066
-0.0520135
-0.053219
-0.0539863
-0.0545801
-0.0553726
-0.0567715
-0.0590632
-0.0623947
-0.0667532
-0.0719278
-0.077497
-0.08291
-0.0876857
-0.0914119
-0.0937595
-0.0945435
-0.0937844
-0.0917701
-0.0890784
-0.0865495
-0.0850501
-0.0850085
-0.0864159
-0.0888654
-0.0915876
-0.093694
-0.0945061
-0.0935608
-0.0906195
-0.08572
-0.0790974
-0.0709434
-0.0614304
-0.0508166
-0.0394562
-0.0276973
-0.0157189
-0.00360835
0.00857563
0.0207664
0.0328705
0.0447564
0.0562741
0.0672567
0.0775319
0.0869372
0.0953416
0.10261
0.108501
0.11272
0.115034
0.115373
0.113901
0.111058
0.1074
0.103205
0.0985728
0.0935356
0.0880844
0.0822028
0.0758843
0.0691145
0.0618
0.053819
0.0450715
0.0355176
0.0252059
0.014278
0.00288783
-0.00890627
-0.0210819
-0.0335879
-0.0463123
-0.0590429
-0.0714423
-0.0830261
-0.093188
-0.101253
-0.106567
-0.108602
-0.10708
-0.102117
-0.0943057
-0.084525
-0.0733479
-0.0610722
-0.0479299
-0.0341889
-0.0202092
-0.00646689
0.00653009
0.0184485
0.0291228
0.0385406
0.0468406
0.0541975
0.0606734
0.0662956
0.0711265
0.0752818
0.0788676
0.0818063
0.0839139
0.0849832
0.0848448
0.0834215
0.0807706
0.0770232
0.0722015
0.0663196
0.0594866
0.0519627
0.0441921
0.0367985
0.0304605
0.0256515
0.0226135
0.0213411
0.0215475
0.0227852
0.0247461
0.0271773
0.0298042
0.0323319
0.0345058
0.0362621
0.03774
0.0392478
0.0412217
0.0441297
0.0482644
0.0535833
0.0597589
0.0663731
0.0731602
0.0799487
0.0866117
0.0930645
0.0992545
0.105136
0.110614
0.115549
0.119785
0.123181
0.125652
0.127203
0.127967
0.128187
0.128099
0.12785
0.127534
0.127234
0.127014
0.126922
0.126982
0.12718
0.127433
0.127561
0.127285
0.126249
0.124053
0.120299
0.114664
0.106956
0.0971264
0.0852564
0.071672
0.0570259
0.0422253
0.0281561
0.0154242
0.00438458
-0.00487714
-0.0125798
-0.0192557
-0.0255786
-0.0319987
-0.0387808
-0.0460548
-0.0537939
-0.0618158
-0.0697826
-0.0772373
-0.0836596
-0.0885492
-0.0915055
-0.0923307
-0.0911314
-0.0883981
-0.0850279
-0.0821495
-0.0807043
-0.0814421
-0.0848865
-0.0912266
-0.100224
-0.111236
-0.123439
-0.135902
-0.147523
-0.157119
-0.163708
-0.166786
-0.166381
-0.163088
-0.157947
-0.151915
-0.145461
-0.13873
-0.131658
-0.124028
-0.115548
-0.105919
-0.0949184
-0.0824971
-0.0688831
-0.0546363
-0.0406503
-0.0279755
-0.01742
-0.00943645
-0.0041145
-0.00124132
-0.000580734
-0.0019226
-0.00493881
-0.00914142
-0.0140466
-0.0194123
-0.0251288
-0.0311179
-0.0372893
-0.0435083
-0.0495968
-0.0553397
-0.0604842
-0.0647573
-0.0678986
-0.069692
-0.0700297
-0.0689895
-0.0668924
-0.064263
-0.0616718
-0.0597545
-0.0591932
-0.0605653
-0.0640877
-0.0695078
-0.0760864
-0.0826582
-0.0879725
-0.0911646
-0.0917555
-0.0896527
-0.0851954
-0.0789728
-0.0713508
-0.0624857
-0.0524955
-0.0415474
-0.0299301
-0.0180903
-0.00657595
0.00417393
0.0138274
0.0220844
0.0285745
0.0328216
0.0343717
0.0329241
0.0284449
0.0211569
0.0113549
-0.000448194
-0.013522
-0.0272329
-0.0411274
-0.0548078
-0.0678674
-0.0798848
-0.0904275
-0.0990727
-0.105485
-0.109517
-0.111296
-0.111283
-0.110169
-0.108496
-0.106533
-0.104397
-0.102128
-0.099716
-0.0971322
-0.0943513
-0.0913699
-0.0881924
-0.0847909
-0.0811216
-0.0771447
-0.0728295
-0.0681626
-0.0631407
-0.0577433
-0.0519138
-0.0455955
-0.0387633
-0.0314556
-0.0237946
-0.0159991
-0.00834724
-0.00107668
0.00567393
0.0118576
0.0175278
0.0228304
0.0279429
0.0329816
0.0380287
0.0431491
0.0483961
0.0538096
0.0594171
0.0652305
0.0712509
0.0774789
0.0839325
0.0906279
0.0975691
0.10473
0.11205
0.119436
0.126805
0.134111
0.141332
0.148454
0.155465
0.162348
0.169066
0.175541
0.181596
0.186894
0.190981
0.193364
0.193585
0.191326
0.186521
0.179437
0.17067
0.16089
0.150457
0.139558
0.128326
0.116873
0.1053
0.0936743
0.0820626
0.0705668
0.0593313
0.0485511
0.0384535
0.0292712
0.0211924
0.0143144
0.00859654
0.0038706
-4.35542e-05
-0.0032477
-0.00584392
-0.00798146
-0.00986901
-0.0117317
-0.0136917
-0.0157168
-0.0176466
-0.0192084
-0.020044
-0.019748
-0.0179338
-0.0143172
-0.00880434
-0.00156596
0.00691726
0.0159662
0.0250273
0.0336899
0.0416183
0.0485519
0.0543169
0.0588395
0.062096
0.0639649
0.0642086
0.0626013
0.059043
0.0536674
0.0469214
0.0396
0.0326989
0.0269979
0.0228575
0.0202634
0.0188381
0.0179693
0.0171297
0.0159108
0.0139709
0.0110532
0.00700524
0.0018094
-0.00441146
-0.0114779
-0.0193613
-0.0281069
-0.0377494
-0.0482565
-0.0594786
-0.0711074
-0.0826702
-0.0936208
-0.103577
-0.112368
-0.12004
-0.12686
-0.133297
-0.139834
-0.146727
-0.154035
-0.161658
-0.169335
-0.176703
-0.183415
-0.189214
-0.193961
-0.197664
-0.200497
-0.202755
-0.204679
-0.206313
-0.207558
-0.208223
-0.208053
-0.206785
-0.204216
-0.200263
-0.195024
-0.188787
-0.1819
-0.174582
-0.166998
-0.15932
-0.151742
-0.144478
-0.137753
-0.131752
-0.126577
-0.122221
-0.118533
-0.115212
-0.111836
-0.108002
-0.103441
-0.0980181
-0.091738
-0.0847638
-0.0774144
-0.0700758
-0.0630041
-0.0562882
-0.0498732
-0.0435599
-0.0370307
-0.0299059
-0.0218434
-0.0125834
-0.00201236
0.0097782
0.0224445
0.0354441
0.0481975
0.0600748
0.0703981
0.0785305
0.0839957
0.0865921
0.0864914
0.0843054
0.0809892
0.0774254
0.0740829
0.0711346
0.068534
0.0660459
0.0633028
0.0599529
0.0559145
0.0513809
0.0467862
0.0426833
0.0394754
0.0374017
0.0365265
0.0367234
0.0377564
0.0393367
0.0410671
0.042423
0.0428004
0.0416535
0.0386803
0.0338732
0.0275596
0.0204149
0.0133315
0.0070058
0.00160664
-0.00313548
-0.0077962
-0.0129817
-0.0189602
-0.0256848
-0.0328279
-0.0398732
-0.0463612
-0.0519373
-0.0563524
-0.0595022
-0.0614582
-0.0624276
-0.0625788
-0.0619933
-0.0607345
-0.0588826
-0.0564987
-0.053525
-0.0498463
-0.0453585
-0.0400212
-0.033905
-0.0272215
-0.0202873
-0.0133812
-0.00668864
-0.000337809
0.00559013
0.0110428
0.0159429
0.0201557
0.0235391
0.0259942
0.0275128
0.0282191
0.0283988
0.0284628
0.0287967
0.0296316
0.0310725
0.0331128
0.0356576
0.0386094
0.0419321
0.0456101
0.0496163
0.0538936
0.0583422
0.0628334
0.0672601
0.0715217
0.0755181
0.0791575
0.0823729
0.0851413
0.0875056
0.0895891
0.0915838
0.0936934
0.0961065
0.0989969
0.102507
0.106719
0.111618
0.117072
0.122836
0.128628
0.134152
0.139078
0.143042
0.14568
0.146659
0.145714
0.142604
0.137065
0.128954
0.118392
0.105838
0.0919804
0.077385
0.0626138
0.0483138
0.0351909
0.0238504
0.0145036
0.00694942
0.000602605
-0.00534139
-0.0114754
-0.018138
-0.025471
-0.0334296
-0.0417843
-0.0501923
-0.0583454
-0.0659735
-0.072847
-0.0788062
-0.0837734
-0.0877224
-0.0905623
-0.0922085
-0.092656
-0.0920278
-0.0906026
-0.0887534
-0.0867532
-0.0847814
-0.0829815
-0.0814809
-0.0803958
-0.0798305
-0.0798701
-0.0805812
-0.0820452
-0.0844044
-0.0877925
-0.0922632
-0.0977308
-0.10393
-0.110429
-0.116762
-0.122545
-0.127458
-0.131262
-0.133839
-0.151985
-0.152446
-0.15234
-0.152021
-0.151748
-0.151723
-0.152099
-0.152968
-0.154339
-0.156118
-0.158093
-0.159948
-0.161311
-0.161771
-0.160888
-0.158209
-0.153298
-0.145843
-0.135769
-0.123322
-0.109046
-0.093512
-0.0771214
-0.0602519
-0.043355
-0.0269536
-0.01157
0.00236057
0.0145064
0.0246807
0.0328817
0.0392316
0.04377
0.0465927
0.0479727
0.048403
0.0484785
0.0485882
0.0489779
0.0498074
0.0511357
0.0529061
0.0549233
0.0568419
0.0581676
0.0582827
0.056502
0.0521617
0.0447408
0.0340025
0.0201299
0.00381532
-0.0138508
-0.0318361
-0.0493298
-0.0656386
-0.080171
-0.0924995
-0.102432
-0.110088
-0.115945
-0.12084
-0.125725
-0.131161
-0.137362
-0.144273
-0.15155
-0.158617
-0.164782
-0.169377
-0.171806
-0.171632
-0.168661
-0.16301
-0.154975
-0.144669
-0.132205
-0.117872
-0.102211
-0.0859773
-0.0698943
-0.0544458
-0.0399544
-0.0266153
-0.0144875
-0.00347835
0.0066174
0.0159802
0.0246669
0.0326875
0.0400658
0.0468774
0.0532699
0.0594372
0.065511
0.0715615
0.0776189
0.0836773
0.0896855
0.0955395
0.101056
0.105938
0.109803
0.11224
0.112889
0.111532
0.10819
0.103215
0.0973271
0.0915493
0.0869026
0.084138
0.0837232
0.0857901
0.0900486
0.0957493
0.101792
0.107135
0.11113
0.113461
0.114102
0.113261
0.11115
0.107831
0.10331
0.0976256
0.0908998
0.0833706
0.075351
0.0670544
0.058555
0.0498732
0.0410348
0.0320998
0.0231899
0.0144973
0.0062797
-0.00117505
-0.00758668
-0.0127347
-0.0165143
-0.0190032
-0.0205017
-0.0215415
-0.0227436
-0.0245088
-0.0270441
-0.0303942
-0.0344228
-0.0388483
-0.0433562
-0.047697
-0.0516607
-0.0550732
-0.0578091
-0.0598115
-0.0611041
-0.061798
-0.06205
-0.0619506
-0.0614911
-0.0606101
-0.0592292
-0.0572857
-0.0547654
-0.0517308
-0.0483343
-0.0447678
-0.0411357
-0.0374877
-0.0338498
-0.0302296
-0.0266234
-0.0230199
-0.0194073
-0.0157777
-0.0121333
-0.00849028
-0.00488081
-0.00135046
0.00204237
0.00523226
0.00815436
0.0107564
0.0130115
0.014931
0.0165719
0.0180255
0.0193733
0.0206727
0.0219694
0.0233007
0.0246937
0.0261616
0.027698
0.0292717
0.0308207
0.0322478
0.033424
0.0341998
0.0344229
0.0339636
0.0327449
0.0307746
0.0281686
0.0251471
0.021955
0.0187493
0.0156345
0.0126877
0.00996006
0.00747555
0.0052299
0.00319356
0.00132795
-0.000419733
-0.002125
-0.00388933
-0.00583614
-0.00810138
-0.0108154
-0.0140835
-0.0179641
-0.0224288
-0.0273232
-0.0323414
-0.0370218
-0.0407892
-0.0430919
-0.0435838
-0.0421449
-0.0388878
-0.0340542
-0.027723
-0.0198636
-0.0104879
0.000251665
0.0120005
0.0242043
0.0362882
0.0479065
0.0588564
0.0690022
0.078226
0.0863398
0.0931277
0.0983979
0.102025
0.103988
0.104326
0.102973
0.0997532
0.0945308
0.0873247
0.0783302
0.0678457
0.0563785
0.0446976
0.0337289
0.0242149
0.0164375
0.0102742
0.00526262
0.000796301
-0.0034661
-0.00767227
-0.0118487
-0.0159104
-0.0196868
-0.0229714
-0.0256089
-0.0275504
-0.0288678
-0.0297571
-0.0304738
-0.0311797
-0.0319282
-0.0326937
-0.0333796
-0.0338362
-0.033905
-0.0334783
-0.0325137
-0.031049
-0.0292142
-0.0272123
-0.0252393
-0.0234209
-0.0218311
-0.0205002
-0.0194127
-0.0185089
-0.0177062
-0.016948
-0.0162053
-0.0154667
-0.0147333
-0.0140146
-0.0133226
-0.012665
-0.0120367
-0.0114096
-0.0107257
-0.00990115
-0.00883429
-0.00741819
-0.00555991
-0.00320181
-0.000346405
0.00292782
0.00645975
0.0100571
0.0136083
0.0170535
0.0203544
0.0234896
0.0264464
0.029219
0.031803
0.034193
0.0363768
0.0383243
0.0399834
0.0412945
0.042206
0.0426915
0.0427651
0.0424915
0.0419826
0.0413551
0.0406748
0.039976
0.0392769
0.038583
0.0378904
0.0371879
0.0364605
0.0356916
0.034866
0.0339718
0.0330011
0.0319491
0.0308182
0.0296208
0.0283797
0.0271205
0.0258546
0.0245805
0.0232914
0.0219787
0.0206372
0.0192676
0.0178804
0.0164957
0.0151362
0.0138107
0.0125196
0.0112584
0.01002
0.00879692
0.00758301
0.0063754
0.00517599
0.00398792
0.00280821
0.00163252
0.000461618
-0.000695927
-0.00182098
-0.00288567
-0.0038595
-0.00471575
-0.00543041
-0.00598524
-0.00637053
-0.00658978
-0.00666201
-0.00662288
-0.00651428
-0.00636321
-0.00618741
-0.00600091
-0.00581378
-0.00563209
-0.00545558
-0.00527489
-0.00507119
-0.00481789
-0.00448255
-0.00403077
-0.0034307
-0.00265872
-0.00170248
-0.00056008
0.00074895
0.00217646
0.00364503
0.00506926
0.00639925
0.00760852
0.008683
0.00961972
0.0104245
0.0111083
0.0116799
0.012149
0.0125277
0.0128312
0.0130762
0.0132745
0.0134294
0.0135391
0.0136002
0.0136087
0.0135621
0.0134605
0.0133077
0.013109
0.0128673
0.0125827
0.0122558
0.0118904
0.0114949
0.0110828
0.0106718
0.0102783
0.00991135
0.00957405
0.00926566
0.00898131
0.00871273
0.00844898
0.00817881
0.00789421
0.00759147
0.00727123
0.00693888
0.00660337
0.00627378
0.00595501
0.00565005
0.00536156
0.00509236
0.00484537
0.00462211
0.00441933
0.00423122
0.00405147
0.00387477
0.00369842
0.00352406
0.00335813
0.00321179
0.0030994
0.00303432
0.00302145
0.00305906
0.00314078
0.00325829
0.00340421
0.00357051
0.00374767
0.00392637
0.0041007
0.00426751
0.0044248
0.00457127
0.00470619
0.00482989
0.00494319
0.00504705
0.00514242
0.00523014
0.00531104
0.00538597
0.00545553
0.00551992
0.00557872
0.00563088
0.00567475
0.00570824
0.00572958
0.00573834
0.00573525
0.00572173
0.00569963
0.00567084
0.00563681
0.00559846
0.00555634
0.00551079
0.00546195
0.00540994
0.00535492
0.00529713
0.00523693
0.00517477
0.0051112
0.00504681
0.00498214
0.00491747
0.00485297
0.00478868
0.00472463
0.0046608
0.00459718
0.00453374
0.00447046
0.00440731
0.00434427
0.0042813
0.00421837
0.00415545
0.00409253
0.00402957
0.00396657
0.0039035
0.00384035
0.00377713
0.00371382
0.00365043
0.00358697
0.00352343
0.00345983
0.00339618
0.00333248
0.00326876
0.00320502
0.00314128
0.00307756
0.00301388
0.00295025
0.00288672
