0.0195142
0.0195338
0.019581
0.0196536
0.0197447
0.0198432
0.0199346
0.0200035
0.0200383
0.0200333
0.019987
0.0198997
0.0197754
0.0196231
0.0194582
0.0193032
0.0191851
0.0191341
0.0191819
0.0193549
0.0196666
0.0201169
0.0207062
0.0214364
0.0223046
0.023298
0.0243889
0.02554
0.0267217
0.0279158
0.0291149
0.0303134
0.0315065
0.0326903
0.0338495
0.0349527
0.0359564
0.0368088
0.037446
0.0377854
0.0377427
0.0372531
0.036281
0.0348418
0.0330067
0.030856
0.0284243
0.0257091
0.0226842
0.01932
0.0156075
0.0115802
0.00732761
0.00299582
-0.00122138
-0.00510124
-0.00844023
-0.0111182
-0.0131028
-0.0143714
-0.0149107
-0.0147103
-0.0137507
-0.0120412
-0.00962958
-0.00658147
-0.00301198
0.000924106
0.00505543
0.00917415
0.0130313
0.0163625
0.0189428
0.0206218
0.0212986
0.0208679
0.0192894
0.0166621
0.0131974
0.00906249
0.0044228
-0.000507481
-0.00547992
-0.0102121
-0.0143909
-0.0176906
-0.0198177
-0.0205812
-0.0199616
-0.0181313
-0.0154735
-0.0124504
-0.00935223
-0.00630215
-0.00330728
-0.000332944
0.00266365
0.00572248
0.00885527
0.0120286
0.0151566
0.0181238
0.02085
0.0233541
0.0257309
0.02806
0.0303504
0.0325325
0.034449
0.0358489
0.0363921
0.0357107
0.0335079
0.0296538
0.0241658
0.0171947
0.00910283
0.000420024
-0.00831449
-0.0165452
-0.0237385
-0.0295131
-0.0337452
-0.0365994
-0.0384061
-0.0394317
-0.0399112
-0.0400735
-0.0400896
-0.0400318
-0.0398978
-0.039639
-0.0391866
-0.038477
-0.0374726
-0.0361874
-0.0346837
-0.0330187
-0.0312441
-0.0294278
-0.0276987
-0.0263312
-0.0256919
-0.0260996
-0.0277143
-0.0304661
-0.0340561
-0.0380974
-0.042136
-0.0456779
-0.0483254
-0.0497902
-0.0498474
-0.0483528
-0.0452896
-0.0407302
-0.0347935
-0.0276503
-0.0194143
-0.0102056
-0.000183978
0.0104766
0.0215256
0.0326159
0.0433174
0.0531216
0.0615146
0.0681001
0.0726019
0.0747405
0.0743142
0.0713525
0.0661064
0.0587927
0.0496301
0.0389853
0.0273366
0.0150385
0.00238378
-0.0103076
-0.0226939
-0.0344535
-0.0452929
-0.0549305
-0.0631017
-0.0696121
-0.0743742
-0.0774652
-0.0792189
-0.0801353
-0.0805343
-0.0805833
-0.0803619
-0.0798731
-0.0790824
-0.0779547
-0.0765
-0.074803
-0.0730024
-0.0711862
-0.0693956
-0.0676447
-0.0659505
-0.0643472
-0.0628758
-0.061571
-0.0604552
-0.0595397
-0.0588125
-0.0582133
-0.0576085
-0.0567746
-0.0553943
-0.0530864
-0.0494689
-0.0442524
-0.0373307
-0.0288228
-0.0189507
-0.00792404
0.00398036
0.0164008
0.0289963
0.0414166
0.0532913
0.0642603
0.074001
0.0822633
0.0888725
0.0936303
0.0963242
0.0968514
0.0953008
0.091915
0.0869115
0.0804404
0.0727013
0.0639707
0.0544868
0.0444776
0.0342273
0.0240836
0.0144338
0.00567166
-0.0019012
-0.00818608
-0.0133172
-0.0175615
-0.0212199
-0.0246659
-0.0283433
-0.0327001
-0.0381175
-0.0447698
-0.0524976
-0.0608765
-0.0694918
-0.0779104
-0.0856259
-0.0921365
-0.0971312
-0.100578
-0.102635
-0.103357
-0.102749
-0.100852
-0.0977308
-0.0934854
-0.0882621
-0.0821453
-0.0751266
-0.0671946
-0.0583933
-0.0488242
-0.0385942
-0.0278749
-0.0169129
-0.00596053
0.00474043
0.014949
0.024436
0.0330105
0.0405492
0.046988
0.0523629
0.0568336
0.0605907
0.0636826
0.0660629
0.0676518
0.0683808
0.0682456
0.0673621
0.0659492
0.0642488
0.0625552
0.0612227
0.0606116
0.0609748
0.0623612
0.0645804
0.0672759
0.0700829
0.0726146
0.074459
0.0752148
0.0745431
0.072203
0.0680367
0.0620613
0.0545237
0.045768
0.0359849
0.0252839
0.0137733
0.00157888
-0.0111282
-0.0240765
-0.0368988
-0.0492666
-0.0610276
-0.0721376
-0.0824947
-0.0919527
-0.100327
-0.107364
-0.112778
-0.116246
-0.117363
-0.115797
-0.111435
-0.104374
-0.0946167
-0.0821481
-0.0671524
-0.050113
-0.031708
-0.0126829
0.00610585
0.0238098
0.0398517
0.053967
0.0661186
0.0762116
0.0840864
0.0896137
0.0926552
0.0929787
0.0904387
0.0851759
0.0776104
0.0681216
0.0570726
0.0449154
0.0321135
0.019171
0.00665266
-0.00488093
-0.0149292
-0.0231136
-0.029259
-0.0334741
-0.0360886
-0.0373367
-0.0374288
-0.0366296
-0.035195
-0.0332648
-0.0309096
-0.0281768
-0.0250817
-0.0216435
-0.0179213
-0.0140131
-0.0100241
-0.00608137
-0.00233869
0.00103169
0.0038569
0.00599748
0.0073882
0.00804988
0.0080376
0.00743444
0.00639993
0.00519759
0.00417218
0.0036458
0.00386644
0.00497212
0.00694558
0.00962612
0.0128272
0.0163461
0.0199446
0.0233868
0.0265046
0.0291929
0.0313661
0.0329036
0.033677
0.0335938
0.032636
0.0308796
0.0284369
0.0254025
0.0218885
0.0180113
0.01379
0.00917892
0.00411531
-0.00143982
-0.00746187
-0.0138226
-0.0202542
-0.0263431
-0.0316151
-0.0357402
-0.0385412
-0.0399056
-0.0398459
-0.0384903
-0.0360475
-0.0328221
-0.0291082
-0.0250766
-0.0208071
-0.0163254
-0.0116239
-0.00668793
-0.00153499
0.00374956
0.00899909
0.0139983
0.0185558
0.02252
0.0257676
0.0281411
0.0294787
0.0296826
0.0287754
0.0268943
0.0241659
0.0207134
0.0166818
0.0121846
0.00732039
0.00220968
-0.00300417
-0.00815953
-0.0130619
-0.0174932
-0.0212456
-0.0241465
-0.0260649
-0.0268545
-0.0263173
-0.0242937
-0.0207546
-0.0158808
-0.0100341
-0.00353079
0.00338128
0.0104703
0.0175301
0.0244291
0.0311181
0.0376036
0.0439002
0.0499334
0.0555338
0.0604521
0.0643796
0.0669675
0.0678551
0.0667911
0.063763
0.059094
0.0533306
0.0468129
0.0397163
0.0321399
0.0241342
0.0157621
0.00715388
-0.00143755
-0.00961586
-0.0168854
-0.0228088
-0.0271203
-0.0297141
-0.0305821
-0.0299185
-0.0281472
-0.0257318
-0.0229827
-0.0200837
-0.0171191
-0.0140794
-0.0108825
-0.00740052
-0.00350172
0.000904495
0.00582435
0.0111644
0.0167757
0.0225076
0.0281994
0.0336835
0.0388069
0.0434671
0.0476269
0.0513048
0.0545148
0.0572098
0.0592984
0.0606475
0.061052
0.0602987
0.0582495
0.054902
0.0503635
0.0447531
0.0382779
0.0312635
0.0240632
0.0170106
0.0104283
0.00461075
-0.000209048
-0.0039116
-0.00654506
-0.00835086
-0.0096655
-0.0107393
-0.0117497
-0.0128251
-0.0140424
-0.0154378
-0.0170086
-0.0187195
-0.0205081
-0.0222963
-0.0240081
-0.0256128
-0.0271605
-0.0287831
-0.0306744
-0.0330476
-0.036073
-0.039825
-0.0442254
-0.0490265
-0.0538712
-0.0583384
-0.0619622
-0.0642929
-0.064997
-0.0639599
-0.0613708
-0.0576846
-0.0533388
-0.0486023
-0.0436144
-0.0384135
-0.0329743
-0.0272521
-0.0212309
-0.0149662
-0.0086037
-0.0023283
0.00369545
0.00933263
0.0144743
0.0190138
0.0228677
0.0260137
0.0284924
0.0303383
0.0315153
0.0319605
0.0316315
0.0305203
0.0286238
0.0260017
0.0228312
0.0193695
0.0157969
0.0122344
0.00877668
0.00552441
0.00265949
0.000433329
-0.000869578
-0.000988975
0.000222689
0.00271337
0.00624268
0.0105693
0.0155329
0.020999
0.0268359
0.0329359
0.0392086
0.0455455
0.0518021
0.0578112
0.0633842
0.0683161
0.0723944
0.0753855
0.0770423
0.0771838
0.0757426
0.0727185
0.0681997
0.0624376
0.0557896
0.0485619
0.0410597
0.0336233
0.0265887
0.0202143
0.0146598
0.00997815
0.00613789
0.00302127
0.000417825
-0.0018813
-0.00392455
-0.00562461
-0.00683253
-0.00744459
-0.00744243
-0.00687636
-0.00582141
-0.00441908
-0.00290779
-0.00158225
-0.000679453
-0.000353927
-0.000679844
-0.00169029
-0.00338311
-0.0056998
-0.00854527
-0.0117633
-0.0151461
-0.0185164
-0.0217433
-0.0247346
-0.0274364
-0.0298182
-0.0318489
-0.0335098
-0.0348102
-0.035778
-0.0364157
-0.036706
-0.0366401
-0.0362232
-0.0354563
-0.0343603
-0.0329999
-0.0314674
-0.0298192
-0.0280814
-0.0262632
-0.0243582
-0.0223481
-0.0201982
-0.0178684
-0.0153295
-0.0125805
-0.00965895
-0.00663403
-0.00356381
-0.000497466
0.00252371
0.00547091
0.00833183
0.0111101
0.0138267
0.0165193
0.019238
0.022035
0.0249439
0.0279449
0.0309514
0.0338051
0.0362842
0.0381321
0.0391137
0.0390772
0.0380179
0.0361039
0.0335855
0.0307018
0.0277166
0.0249405
0.0227182
0.0213955
0.0212625
0.022485
0.0250315
0.0286548
0.0330214
0.0378429
0.0428282
0.0476474
0.0519353
0.0553172
0.0574526
0.0580863
0.0570935
0.054438
0.0500757
0.0440613
0.0366532
0.0282757
0.0192767
0.00990713
0.000379071
-0.00911396
-0.0183971
-0.0273626
-0.0360439
-0.0445955
-0.0531981
-0.0618549
-0.0703373
-0.0782375
-0.0851095
-0.0905899
-0.0944733
-0.0967229
-0.097341
-0.0964067
-0.0941432
-0.0908259
-0.0866007
-0.0815461
-0.0757488
-0.069347
-0.0625124
-0.0553285
-0.0478289
-0.0400496
-0.032041
-0.023864
-0.0156042
-0.00739715
0.000565181
0.00804353
0.0147985
0.020629
0.0253914
0.028945
0.0310596
0.0315
0.0301131
0.0268373
0.0217305
0.0150897
0.00743122
-0.000763037
-0.00899545
-0.0167047
-0.023305
-0.0282678
-0.0312426
-0.0321624
-0.0313345
-0.0293556
-0.0267251
-0.0237711
-0.0207039
-0.0176271
-0.0145637
-0.0115015
-0.00843971
-0.00541731
-0.00253315
6.00859e-05
0.00219519
0.00373231
0.00460622
0.00487203
0.00470259
0.00428531
0.00376754
0.00326988
0.00288701
0.00268164
0.00269112
0.0029513
0.00348775
0.00430209
0.00536486
0.00662467
0.00803048
0.00951792
0.0109991
0.0123672
0.0135212
0.014397
0.0149815
0.0153242
0.0155228
0.0156605
0.0157904
0.0159365
0.0160928
0.0162282
0.0162881
0.0161984
0.0158746
0.0152249
0.0141394
0.0125131
0.0102863
0.00748463
0.00425034
0.000819781
-0.00259311
-0.00582547
-0.00876167
-0.0113412
-0.013543
-0.0153213
-0.0165794
-0.0171974
-0.0170652
-0.0161079
-0.0142824
-0.0116066
-0.00821493
-0.00433981
-0.000177028
0.0040936
0.00828633
0.0122308
0.0158214
0.0190506
0.0220045
0.0248113
0.0275566
0.0302762
0.0329532
0.0355064
0.0377985
0.0396616
0.0409455
0.0415626
0.0414943
0.0407343
0.0392767
0.0371546
0.0344474
0.03128
0.0278354
0.0242989
0.0207531
0.0172062
0.0136602
0.0101643
0.00682012
0.00377376
0.00118785
-0.000802024
-0.00212692
-0.00282315
-0.00303251
-0.0029139
-0.0026009
-0.00221751
-0.00187832
-0.00166629
-0.00160243
-0.00164051
-0.00166962
-0.00152527
-0.00102282
-3.40859e-05
0.00141164
0.00310433
0.00469963
0.00588287
0.00647947
0.0064764
0.00598609
0.00510024
0.00386038
0.00227617
0.000317524
-0.00210184
-0.00510204
-0.00878812
-0.0132004
-0.0182965
-0.0240002
-0.0301493
-0.0364552
-0.0425299
-0.0480192
-0.0527352
-0.0566003
-0.0594698
-0.0611864
-0.0616575
-0.060889
-0.0589723
-0.0560979
-0.052549
-0.0485432
-0.044162
-0.0393999
-0.034226
-0.0286632
-0.0228319
-0.0169697
-0.0113847
-0.00627618
-0.001636
0.00267329
0.00670121
0.0103666
0.0134861
0.015801
0.0170332
0.0169819
0.0156282
0.0132061
0.0101258
0.00667436
0.00303788
-0.000646492
-0.00427525
-0.00776148
-0.011027
-0.0139885
-0.0165503
-0.0185812
-0.0198714
-0.0201764
-0.0192926
-0.0171326
-0.0137888
-0.00948748
-0.00446935
0.000960838
0.00641409
0.0115087
0.015964
0.0196194
0.0224165
0.024317
0.0252761
0.0252897
0.0244166
0.0227212
0.0201704
0.0166988
0.0122925
0.0070511
0.00121904
-0.00490957
-0.0111716
-0.0175127
-0.0239452
-0.0304911
-0.0370474
-0.0433501
-0.049014
-0.0536637
-0.0570778
-0.0592459
-0.0603292
-0.0604555
-0.0597035
-0.0581593
-0.055894
-0.0528703
-0.0489895
-0.0441649
-0.0383509
-0.0315099
-0.0236356
-0.0148398
-0.00538028
0.00441284
0.0141373
0.0233246
0.0315238
0.0384087
0.0438049
0.0476616
0.0501248
0.0515431
0.0522733
0.0524917
0.0522321
0.0514399
0.0500247
0.0479176
0.0451158
0.0416775
0.0377098
0.0334108
0.0290437
0.0248106
0.0208453
0.0172277
0.0140115
0.0112193
0.00884479
0.00690211
0.00541249
0.00435885
0.00363547
0.00299067
0.00201941
0.00023122
-0.00277806
-0.00724429
-0.0131565
-0.0202488
-0.028173
-0.0365759
-0.045051
-0.0531284
-0.0603036
-0.0661132
-0.0702784
-0.0728215
-0.0741151
-0.0747368
-0.0750258
-0.0750821
-0.0748171
-0.0739854
-0.0723038
-0.0695652
-0.0657339
-0.0610196
-0.0558326
-0.0505217
-0.0453063
-0.0402825
-0.0354255
-0.0306529
-0.0258981
-0.0211086
-0.0162267
-0.0111606
-0.00580712
-7.81538e-05
0.00606697
0.0125835
0.0193038
0.0259332
0.0320902
0.0374578
0.0419962
0.0459015
0.0493812
0.0525479
0.0554318
0.0579847
0.0600768
0.0615114
0.0620689
0.0615612
0.059872
0.0570163
0.0531199
0.04825
0.0424669
0.0358653
0.0285256
0.02052
0.0119671
0.00307068
-0.00592181
-0.0148739
-0.023739
-0.0324994
-0.0411088
-0.0494763
-0.0574471
-0.0647913
-0.0712292
-0.0764636
-0.0801962
-0.0821698
-0.0822713
-0.0806026
-0.0775235
-0.0735023
-0.0688236
-0.0636345
-0.0580167
-0.0520251
-0.0457399
-0.0393011
-0.032901
-0.0266911
-0.0207908
-0.0152985
-0.010314
-0.00594704
-0.00228057
0.000669371
0.00294387
0.00456018
0.00552316
0.00587858
0.00574457
0.00531114
0.004752
0.00413926
0.00345436
0.00261026
0.0014726
-7.99953e-05
-0.00205698
-0.00431629
-0.00656251
-0.00842018
-0.00957748
-0.0098365
-0.00916362
-0.00772049
-0.00577197
-0.0035074
-0.00105566
0.00149143
0.00407408
0.0066406
0.00911425
0.011383
0.0133009
0.0147148
0.0155242
0.0157179
0.0153607
0.0145107
0.0132188
0.0115555
0.00959028
0.00730317
0.0045551
0.00114097
-0.00312764
-0.00829549
-0.0141776
-0.0203159
-0.026053
-0.030814
-0.0342945
-0.0364169
-0.0371456
-0.0365631
-0.0349078
-0.0324559
-0.0294739
-0.026231
-0.0229546
-0.019772
-0.0167227
-0.0137668
-0.0108022
-0.00769959
-0.00434396
-0.00065277
0.00340491
0.00781747
0.012582
0.0177031
0.0231611
0.0288927
0.0347704
0.0405844
0.0460516
0.0508818
0.0548074
0.057576
0.058881
0.0583832
0.055835
0.0512081
0.0447744
0.0370083
0.0283514
0.0192633
0.0101914
0.00136584
-0.00715358
-0.0153481
-0.0232061
-0.0307142
-0.0378216
-0.0443719
-0.0500637
-0.0545352
-0.0575151
-0.0589275
-0.0589001
-0.0576011
-0.0551817
-0.0518529
-0.0478703
-0.0433954
-0.0385338
-0.0333878
-0.0280847
-0.0227978
-0.017725
-0.0129894
-0.0085832
-0.00438791
-0.000261861
0.00387514
0.00803729
0.0121724
0.0161659
0.0198781
0.023169
0.0259255
0.0280903
0.0296535
0.0305785
0.0308391
0.0304609
0.0295359
0.0281741
0.0264146
0.0242573
0.0217049
0.0187911
0.0155903
0.0121824
0.00866736
0.00519096
0.00195441
-0.000792431
-0.00277664
-0.00374965
-0.00354811
-0.00215795
0.00028902
0.00365502
0.00784604
0.0127415
0.0181495
0.0238119
0.0294457
0.0347293
0.0393262
0.0429664
0.0455087
0.0469894
0.047608
0.0475676
0.0470044
0.0460331
0.04478
0.0434001
0.0420652
0.0409028
0.039995
0.0393774
0.0390258
0.038865
0.0388115
0.0387639
0.0385927
0.0381448
0.0372567
0.0357786
0.0336099
0.030737
0.0272542
0.023311
0.0190065
0.0144201
0.0096475
0.00481846
0.000107795
-0.00426692
-0.00805403
-0.0109948
-0.0128714
-0.0135643
-0.0130989
-0.0116832
-0.00966475
-0.00725952
-0.00437141
-0.000877361
0.0032078
0.00781348
0.0129256
0.0185288
0.0245445
0.0308176
0.0371516
0.0433269
0.0490914
0.0541693
0.0582656
0.0610536
0.0622494
0.0617029
0.0594569
0.0557517
0.0508458
0.0448514
0.0378362
0.0299457
0.021472
0.0129047
0.0048651
-0.00212998
-0.00770037
-0.0115878
-0.0137107
-0.0141452
-0.0131606
-0.0111482
-0.00855594
-0.00572515
-0.00285893
-5.62285e-05
0.00265892
0.00527779
0.00778924
0.0101675
0.0123686
0.0143373
0.0160235
0.0174034
0.0184902
0.0193116
0.0199233
0.0204289
0.0209751
0.0217209
0.0228168
0.0243727
0.0264138
0.0288263
0.0313
0.0333309
0.0343343
0.0339069
0.0319623
0.0287656
0.0247899
0.0204296
0.0160188
0.0118518
0.00815094
0.00505
0.00258649
0.000750743
-0.000438457
-0.000958159
-0.000822757
-0.000113938
0.0010023
0.00233818
0.00379807
0.00536194
0.00705863
0.00894858
0.0110838
0.0134707
0.0160575
0.0187596
0.0215103
0.0242577
0.0269604
0.0295908
0.0321309
0.0345719
0.0369099
0.0391366
0.0412099
0.0430193
0.0443929
0.0451227
0.0449915
0.0438081
0.0414631
0.0379921
0.0335507
0.0282487
0.0221335
0.0152265
0.00755879
-0.000808358
-0.00983273
-0.0194492
-0.029506
-0.0397412
-0.049836
-0.0594457
-0.0682082
-0.0757661
-0.0817929
-0.0860667
-0.0884888
-0.0889837
-0.0875996
-0.0845492
-0.0800604
-0.0743199
-0.0674783
-0.0596029
-0.0507537
-0.0410653
-0.0307299
-0.0198631
-0.00855361
0.00307599
0.0148732
0.026651
0.0381791
0.0491835
0.05939
0.0685927
0.0767008
0.0837279
0.089681
0.0945186
0.0981972
0.100666
0.101871
0.101733
0.10014
0.0969903
0.0921739
0.0856471
0.0775262
0.0680834
0.0577937
0.0472139
0.0367226
0.0265352
0.0167541
0.00744554
-0.00134345
-0.00959361
-0.0172934
-0.02438
-0.0307259
-0.0361787
-0.0405894
-0.0437975
-0.0456924
-0.046268
-0.0455997
-0.0438965
-0.0414475
-0.0384735
-0.035165
-0.0317134
-0.0282873
-0.0250109
-0.0219663
-0.0191953
-0.016697
-0.0144386
-0.0123561
-0.0103478
-0.00828146
-0.00603473
-0.00355748
-0.000892865
0.00181183
0.00431129
0.00632023
0.00758494
0.00792338
0.00724403
0.00549327
0.00261665
-0.00136361
-0.00627574
-0.0118118
-0.017654
-0.0234461
-0.0287796
-0.0332566
-0.0365482
-0.0384444
-0.0388667
-0.0378552
-0.0355694
-0.0321757
-0.0279116
-0.0231521
-0.0183567
-0.0138785
-0.00990719
-0.00647336
-0.00347104
-0.000766688
0.00174189
0.00413057
0.00644996
0.00872453
0.0109562
0.0131254
0.0151897
0.0171009
0.0188231
0.0203457
0.0216833
0.0228503
0.0238598
0.0247298
0.0254865
0.0261617
0.0267873
0.0273649
0.0278043
0.0279265
0.0274886
0.0262192
0.0238808
0.0203429
0.0156583
0.0100634
0.00384587
-0.00267669
-0.00917148
-0.0153422
-0.0209386
-0.0257709
-0.0297132
-0.0327285
-0.0349051
-0.0364243
-0.037415
-0.0379851
-0.0382613
-0.0383912
-0.0385086
-0.0386944
-0.0389812
-0.0393529
-0.0397399
-0.040019
-0.0400204
-0.0395482
-0.0384135
-0.0364818
-0.0337243
-0.0302473
-0.0262501
-0.0219775
-0.0177442
-0.0139267
-0.0108937
-0.00891987
-0.00813177
-0.00846142
-0.00969737
-0.0116945
-0.0143419
-0.0175198
-0.0211325
-0.0251552
-0.0295898
-0.034406
-0.0395069
-0.0447248
-0.0498303
-0.0545187
-0.0584224
-0.0611485
-0.0623285
-0.0616959
-0.0591974
-0.0550606
-0.0496831
-0.0433904
-0.0364944
-0.0293226
-0.0221475
-0.0151824
-0.00859784
-0.00252165
0.00296472
0.00783424
0.0120882
0.0156714
0.018483
0.0204333
0.0214919
0.0216914
0.0210427
0.0195989
0.0175206
0.0150591
0.0124384
0.00983657
0.00740674
0.00528287
0.00360094
0.00250644
0.0021207
0.00249451
0.00356313
0.00511062
0.00680838
0.00837725
0.00963598
0.010503
0.0110037
0.0112233
0.011224
0.0110474
0.010725
0.0102793
0.00973186
0.00910974
0.00844115
0.00774075
0.00701946
0.00629248
0.00558199
0.00491745
0.00433157
0.00385395
0.00350306
0.00327781
0.00315337
0.00309255
0.00306833
0.00306243
0.00306311
0.00306671
0.00307782
0.00310939
0.00318147
0.0033193
0.00354989
0.00389872
0.00438782
0.00504474
0.0059162
0.00705277
0.00848686
0.0102119
0.0121691
0.0142648
0.0163886
0.0184016
0.0201322
0.0213829
0.0219401
0.0216172
0.0203079
0.0180271
0.014882
0.0109908
0.0065351
0.00178096
-0.00298223
-0.00745021
-0.0113046
-0.0142415
-0.0160077
-0.0164516
-0.0156034
-0.0137426
-0.0113455
-0.00883273
-0.00651231
-0.00461043
-0.0032989
-0.00271499
-0.00292438
-0.00388803
-0.00544975
-0.00739599
-0.00956342
-0.0118223
-0.014054
-0.0161523
-0.0180287
-0.0196222
-0.0209053
-0.021895
-0.0226559
-0.0232732
-0.0238021
-0.0242738
-0.0247024
-0.025085
-0.0254031
-0.0256185
-0.0256587
-0.0254165
-0.0247702
-0.0236081
-0.0218584
-0.0194942
-0.0164989
-0.012909
-0.00886004
-0.00458228
-0.000328013
0.00367638
0.00723465
0.0102023
0.0124987
0.0140964
0.0150538
0.0155338
0.0157434
0.0158254
0.0158639
0.0158968
0.0159127
0.0158583
0.0156478
0.0151811
0.0143655
0.0131404
0.011493
0.0094365
0.00696493
0.00408346
0.000840901
-0.00266106
-0.00625795
-0.00970379
-0.0126694
-0.0147704
-0.0156288
-0.0149771
-0.012774
-0.00928991
-0.0050694
-0.000651797
0.00358601
0.0074052
0.0106544
0.0132022
0.0149647
0.0159381
0.0162039
0.0158784
0.0150243
0.013688
0.0119451
0.00992099
0.00776725
0.00560145
0.00352285
0.00162382
-1.53921e-05
-0.00133476
-0.00229814
-0.00287416
-0.00302457
-0.00273259
-0.00202205
-0.000939827
0.000456932
0.00206787
0.00372333
0.00517707
0.00613426
0.00632684
0.00556443
0.00378799
0.00112244
-0.00217171
-0.00589818
-0.00989903
-0.0140107
-0.018059
-0.021852
-0.0251867
-0.0278583
-0.0296855
-0.030545
-0.0303788
-0.0291396
-0.0268527
-0.0236376
-0.0196196
-0.014958
-0.00990848
-0.0048305
-0.000110133
0.00393627
0.00708708
0.00924591
0.010421
0.0106018
0.00981257
0.00817827
0.00591706
0.00323937
0.000304528
-0.00274163
-0.00574719
-0.00855738
-0.0110461
-0.0131324
-0.0147941
-0.0160818
-0.0171037
-0.0179465
-0.018636
-0.0191489
-0.0194248
-0.0193807
-0.0189313
-0.0180047
-0.0165537
-0.0145881
-0.0121882
-0.00945346
-0.00641002
-0.0030305
0.000734059
0.00492738
0.00956545
0.0146326
0.020045
0.0256082
0.030999
0.0357928
0.0395659
0.0419923
0.0429105
0.0423391
0.0404449
0.0375618
0.0340629
0.0302132
0.0261987
0.0221519
0.0181551
0.0142493
0.0104493
0.00675987
0.00318552
-0.000263025
-0.00356774
-0.00669164
-0.00955156
-0.0120384
-0.0140509
-0.0155293
-0.0164907
-0.0170447
-0.0173445
-0.0174922
-0.0175468
-0.0175367
-0.0174611
-0.0172986
-0.0170191
-0.0166005
-0.0160438
-0.0153867
-0.0147002
-0.0140602
-0.013526
-0.0131317
-0.0128755
-0.0127121
-0.0125638
-0.0123625
-0.0120561
-0.0116156
-0.0110447
-0.0103811
-0.00967632
-0.00897326
-0.00829998
-0.00766304
-0.00703657
-0.00635752
-0.00552422
-0.00440351
-0.00284804
-0.000724037
0.00205752
0.00553416
0.00974153
0.014683
0.0202728
0.0262976
0.0324346
0.0383705
0.0438792
0.0488277
0.0531764
0.0569207
0.0600402
0.0625263
0.0644099
0.065756
0.0666006
0.066895
0.0665448
0.0654534
0.0635366
0.0606886
0.0568004
0.0518372
0.0459011
0.0392036
0.0318973
0.0241227
0.0160639
0.00796612
0.00011356
-0.0072576
-0.0139752
-0.019943
-0.0251525
-0.0296118
-0.0332327
-0.0358759
-0.0374117
-0.0377507
-0.0369074
-0.035074
-0.0326101
-0.0298559
-0.0270328
-0.0242649
-0.0215855
-0.0189529
-0.0162985
-0.0135563
-0.0106842
-0.00769004
-0.00465121
-0.00172262
0.000876699
0.00290361
0.00413931
0.00444807
0.00383882
0.0025106
0.000794103
-0.00106319
-0.00289637
-0.0046059
-0.0061678
-0.00761446
-0.00898325
-0.0102765
-0.0114493
-0.0124018
-0.0129816
-0.013002
-0.0122634
-0.0105653
-0.00775328
-0.00380239
0.00111482
0.00662936
0.0123438
0.0180065
0.0235012
0.0288147
0.0339678
0.0389373
0.0436494
0.0479793
0.0517584
0.0548015
0.0569397
0.0580505
0.0581283
0.0573446
0.0560185
0.0544228
0.0526742
0.0507538
0.0485284
0.0458124
0.0424625
0.0384254
0.033739
0.0284494
0.0225831
0.0161975
0.00941459
0.00242346
-0.00457289
-0.0113613
-0.017718
-0.0234244
-0.0282974
-0.0322068
-0.0350659
-0.0368736
-0.0377728
-0.0380186
-0.0378084
-0.0372631
-0.0364714
-0.0355094
-0.0344531
-0.0333654
-0.032311
-0.0313698
-0.0306421
-0.0302409
-0.0302758
-0.030829
-0.0319507
-0.0336894
-0.0360487
-0.0389392
-0.0421629
-0.045464
-0.0486336
-0.0515144
-0.0540071
-0.0560879
-0.0577986
-0.0591855
-0.0602673
-0.0610417
-0.0614872
-0.0615453
-0.0610728
-0.0598581
-0.0576695
-0.054309
-0.049616
-0.0433851
-0.0354764
-0.0259502
-0.0151579
-0.00372397
0.0077174
0.0186729
0.0287926
0.0378916
0.0459226
0.0528201
0.058504
0.0629483
0.0662357
0.0685657
0.0701415
0.0710642
0.0713931
0.0712006
0.0705791
0.0695901
0.0682499
0.0665681
0.0645728
0.0623099
0.0598002
0.0570427
0.0540343
0.0507824
0.0472989
0.0435667
0.0395448
0.0351942
0.0304996
0.0254932
0.020267
0.014946
0.00958687
0.00418377
-0.00131556
-0.00699129
-0.0129043
-0.019029
-0.0252282
-0.0312449
-0.036746
-0.0414381
-0.045121
-0.0477363
-0.0493615
-0.0500723
-0.049954
-0.0491632
-0.0479479
-0.0465939
-0.0453195
-0.0442776
-0.0435585
-0.0431761
-0.0430733
-0.0431591
-0.0433295
-0.0434617
-0.0434171
-0.0430531
-0.0422438
-0.0409123
-0.0390643
-0.0368136
-0.0343752
-0.0319837
-0.0298039
-0.02792
-0.0263271
-0.0249261
-0.0235777
-0.0222396
-0.0209763
-0.0199424
-0.0193284
-0.0192282
-0.019603
-0.0202872
-0.0210759
-0.0218238
-0.0224457
-0.02292
-0.0232976
-0.0236714
-0.0240941
-0.0245649
-0.0250281
-0.0253806
-0.0255174
-0.0253693
-0.0249232
-0.0242399
-0.0234342
-0.0225967
-0.0217895
-0.0210457
-0.0203567
-0.0196738
-0.018917
-0.017983
-0.0167601
-0.015152
-0.0130931
-0.0105454
-0.00752879
-0.00416527
-0.000704453
0.00248358
0.00498423
0.00643876
0.00660968
0.00544919
0.00308831
-0.000322472
-0.00454475
-0.00918255
-0.0136784
-0.0174111
-0.0199518
-0.0211322
-0.0210868
-0.0201873
-0.0187602
-0.0171003
-0.015494
-0.0141888
-0.0133531
-0.0130239
-0.0130819
-0.0132437
-0.0130752
-0.0120735
-0.00983672
-0.00615923
-0.00111565
0.00487054
0.0111258
0.0170821
0.0223963
0.0269609
0.0308988
0.0344123
0.0376264
0.0405784
0.043219
0.0454115
0.0469719
0.0477222
0.0475533
0.046464
0.0445222
0.0418222
0.0385368
0.0349069
0.0311328
0.0273845
0.023817
0.0205647
0.0177351
0.0154003
0.0136063
0.0123728
0.0116658
0.0113755
0.011352
0.0115204
0.0118736
0.0124505
0.0133312
0.0146286
0.0164815
0.0190104
0.0222716
0.026245
0.0308904
0.0361195
0.0417448
0.0474542
0.052853
0.057597
0.0614219
0.0641382
0.0655885
0.065691
0.0645057
0.0622718
0.0593248
0.0558161
0.0517559
0.0471107
0.0418377
0.0359229
0.0293741
0.0222247
0.0145778
0.00660503
-0.00147361
-0.00936997
-0.0167379
-0.0232228
-0.0285255
-0.0324622
-0.0349911
-0.0361419
-0.0360143
-0.0348504
-0.0329954
-0.0306975
-0.0281388
-0.0254819
-0.0228713
-0.0204187
-0.0181797
-0.0161584
-0.0143081
-0.012552
-0.0108354
-0.00912389
-0.00739401
-0.00563159
-0.00382101
-0.0019271
0.000110112
0.00235904
0.00487214
0.0076508
0.0105944
0.0134314
0.0157144
0.0168909
0.0164984
0.0144169
0.0107886
0.00581886
-0.00018476
-0.00688637
-0.0139571
-0.020998
-0.0275148
-0.0329477
-0.0367927
-0.0388239
-0.0391454
-0.0380613
-0.0358442
-0.0327792
-0.0291678
-0.0252824
-0.0213825
-0.017677
-0.0142515
-0.0110735
-0.00802264
-0.00495637
-0.00175509
0.00166465
0.00533836
0.00925531
0.0133749
0.0176157
0.0218493
0.0259042
0.0295823
0.0326976
0.0351562
0.0369912
0.0382681
0.0390793
0.0395595
0.0398387
0.0399955
0.0400664
0.0400551
0.0399342
0.0396527
0.0391516
0.0383824
0.0373145
0.0359219
0.0341855
0.0321101
0.0297283
0.0270676
0.0241237
0.0208822
0.0173389
0.0135076
0.00944419
0.0052539
0.00109223
-0.0028278
-0.00625552
-0.00896058
-0.0107533
-0.011467
-0.010965
-0.00922294
-0.00640612
-0.00284985
0.0011009
0.00506898
0.00865856
0.011575
0.0136706
0.0149243
0.0153373
0.014897
0.0136267
0.0116054
0.00893963
0.00579246
0.00242416
-0.000831248
-0.00369224
-0.00601239
-0.00779091
-0.00913892
-0.0101634
-0.0109653
-0.0116236
-0.0121761
-0.0126256
-0.0129458
-0.0130907
-0.0129939
-0.0125652
-0.0117172
-0.0103976
-0.00861257
-0.00642356
-0.00388742
-0.00105588
0.00200695
0.00523633
0.00861304
0.0121495
0.0158691
0.0197873
0.0238967
0.0281628
0.0325063
0.0367964
0.0408724
0.0445643
0.0477136
0.0501916
0.0519056
0.0528324
0.0530395
0.0526329
0.0517064
0.0503753
0.0487983
0.047138
0.045449
0.0436851
0.0417341
0.0394764
0.0368493
0.0338693
0.0306176
0.0271574
0.0234931
0.01959
0.0153954
0.010875
0.00605326
0.00104756
-0.00391418
-0.00851675
-0.0124578
-0.0155001
-0.0175007
-0.0183849
-0.0180854
-0.016618
-0.0141605
-0.0110234
-0.00749174
-0.00385835
-0.000463858
0.00231603
0.00410193
0.00457131
0.00352787
0.000974481
-0.00286209
-0.00749484
-0.012306
-0.016965
-0.021472
-0.0259307
-0.0304401
-0.0350753
-0.0398562
-0.0447075
-0.0494463
-0.0537878
-0.0574296
-0.0602239
-0.0621759
-0.063306
-0.0636141
-0.0631362
-0.0619857
-0.0603296
-0.0582805
-0.0558893
-0.053183
-0.0501798
-0.0468892
-0.0433246
-0.0395327
-0.0356112
-0.0316912
-0.0278701
-0.0241998
-0.0206775
-0.0172315
-0.0137224
-0.00997628
-0.00584544
-0.00124044
0.00384082
0.0093171
0.0150543
0.0208371
0.0263504
0.0311921
0.03491
0.0370723
0.0373613
0.0356736
0.0321558
0.027153
0.0210962
0.0142759
0.00689432
-0.000866839
-0.008822
-0.016742
-0.0243301
-0.0312402
-0.0371632
-0.0419131
-0.0454832
-0.0480749
-0.0499861
-0.0514007
-0.0524164
-0.0530847
-0.0534192
-0.0533938
-0.0529077
-0.0518285
-0.0500499
-0.047541
-0.0443885
-0.0407613
-0.0367638
-0.0324544
-0.0278798
-0.0230842
-0.0181177
-0.0130164
-0.00781849
-0.00258603
0.00257922
0.00753142
0.0120857
0.0160411
0.0192158
0.0214994
0.0229005
0.0235832
0.0237924
0.0236212
0.0230231
0.0218563
0.0199142
0.016986
0.0129321
0.00777321
0.0017628
-0.0046387
-0.0110053
-0.0171824
-0.0231785
-0.0289156
-0.0342357
-0.0389323
-0.0427765
-0.0455894
-0.0472968
-0.0479604
-0.0477035
-0.046569
-0.0445788
-0.0418031
-0.0383574
-0.0343304
-0.0298352
-0.0250647
-0.0202899
-0.0157887
-0.0117973
-0.00850101
-0.00603853
-0.00454962
-0.0041426
-0.00483208
-0.00652829
-0.00912434
-0.0125191
-0.0165782
-0.0211557
-0.0260926
-0.0311807
-0.0361767
-0.0408849
-0.0451628
-0.048923
-0.0521261
-0.0547206
-0.0566297
-0.0577937
-0.0582111
-0.05796
-0.0571452
-0.055799
-0.0539195
-0.0515179
-0.0486369
-0.0453312
-0.041614
-0.0374967
-0.0330254
-0.0283046
-0.0234845
-0.0186967
-0.0140517
-0.00964124
-0.00552336
-0.00171866
0.00180671
0.00514572
0.00843994
0.0118142
0.0152815
0.0187286
0.0219232
0.0245422
0.0262588
0.0268497
0.0262725
0.0247274
0.0225943
0.0201709
0.0176808
0.0152978
0.0131377
0.0112806
0.009763
0.00856297
0.00758812
0.00666978
0.00556914
0.00401178
0.00174929
-0.00138733
-0.00542344
-0.0101776
-0.015225
-0.0199697
-0.023889
-0.0266194
-0.027936
-0.0277626
-0.0262103
-0.0234955
-0.0198432
-0.0155363
-0.0109026
-0.00619591
-0.00157474
0.00287329
0.00711838
0.0111597
0.0150121
0.0187035
0.0222769
0.025779
0.0292406
0.0326724
0.0360753
0.0394411
0.04275
0.0459655
0.0490442
0.0519432
0.0546316
0.0570933
0.0593295
0.0613674
0.0632665
0.0650957
0.0668738
0.0685506
0.070013
0.071092
0.0715856
0.0712908
0.0700509
0.0678128
0.0646497
0.060687
0.0560276
0.0507983
0.0451669
0.0392913
0.0333016
0.0273212
0.0214743
0.0158747
0.0105959
0.00566075
0.0010302
-0.00339107
-0.00770451
-0.0119639
-0.0161747
-0.0202911
-0.0242112
-0.0277801
-0.0308132
-0.0331318
-0.0346041
-0.0351759
-0.0348313
-0.0335107
-0.0311778
-0.0278957
-0.0238753
-0.0194492
-0.0149072
-0.0104642
-0.00627162
-0.00240743
0.0011371
0.00444062
0.00758953
0.0106639
0.0137454
0.0169161
0.0202624
0.0238819
0.0278735
0.0323092
0.037203
0.042476
0.0479514
0.053399
0.0585236
0.0629649
0.0663209
0.0681724
0.0681696
0.0661513
0.0622312
0.0568077
0.0504856
0.0437226
0.0367659
0.0297507
0.0227779
0.0159347
0.00929368
0.00290628
-0.00318121
-0.00889201
-0.0140648
-0.0184451
-0.0217455
-0.0237161
-0.0242372
-0.0234109
-0.0216049
-0.0193059
-0.0168462
-0.0144125
-0.0120837
-0.00986512
-0.00771992
-0.00557519
-0.003342
-0.000937427
0.00169698
0.00458904
0.00771572
0.0109888
0.0142525
0.0173088
0.0199862
0.0221769
0.0238574
0.0250834
0.025919
0.0264041
0.0265716
0.026448
0.0260266
0.0252796
0.0241831
0.022733
0.0209364
0.0188179
0.016437
0.0138724
0.0111516
0.00824061
0.00505779
0.00149329
-0.00256555
-0.00720557
-0.0124605
-0.0182621
-0.0244245
-0.0306962
-0.0367928
-0.0423948
-0.0471765
-0.0508562
-0.0532567
-0.0543493
-0.0542111
-0.0529178
-0.0506035
-0.0474667
-0.0436549
-0.0393139
-0.0346403
-0.0298824
-0.025252
-0.0207776
-0.0163623
-0.0119342
-0.00748561
-0.00307766
0.00116033
0.00506037
0.00846108
0.0112371
0.0133333
0.014754
0.0154768
0.0154917
0.0148485
0.013652
0.0119925
0.00991934
0.00746894
0.00466276
0.00150814
-0.00196455
-0.00567235
-0.0094737
-0.0131604
-0.0164776
-0.0191754
-0.0210434
-0.0219516
-0.0218592
-0.0207526
-0.018699
-0.0158592
-0.0123938
-0.00846965
-0.00428409
-2.54165e-05
0.00416954
0.00820317
0.012005
0.0155201
0.0186782
0.021399
0.0236091
0.0252571
0.0262948
0.0266411
0.0262307
0.0250668
0.0232571
0.0209748
0.0183029
0.0152588
0.0118365
0.0080241
0.00381738
-0.000777484
-0.00570255
-0.0108161
-0.0158961
-0.0207086
-0.0250552
-0.0287903
-0.0318128
-0.0340119
-0.035317
-0.0357565
-0.0354807
-0.0347028
-0.0335775
-0.0322264
-0.0307635
-0.0292972
-0.0279134
-0.0266244
-0.0253677
-0.0240121
-0.0223689
-0.0202239
-0.0173875
-0.0137432
-0.00929758
-0.0042175
0.00120955
0.0067485
0.0122595
0.0176898
0.0230752
0.0285218
0.034146
0.0400084
0.0460769
0.052201
0.0581107
0.0634726
0.0679702
0.0713589
0.0735279
0.0745071
0.0743647
0.0732589
0.0714386
0.0690935
0.0662907
0.0630141
0.0592058
0.054804
0.0497992
0.0442806
0.0384358
0.0324491
0.0264461
0.0204984
0.0146222
0.00877099
0.0028477
-0.00326565
-0.00967334
-0.0164244
-0.0234458
-0.0304937
-0.0371552
-0.0429284
-0.0474215
-0.0505561
-0.0525669
-0.0537959
-0.0544918
-0.0548442
-0.0550083
-0.0551015
-0.0551982
-0.0553112
-0.0554
-0.0553909
-0.0551968
-0.0547395
-0.0539728
-0.0529012
-0.0515919
-0.0501502
-0.0486448
-0.0471038
-0.0455202
-0.0438509
-0.0420309
-0.0399906
-0.0376792
-0.035088
-0.0322702
-0.0293325
-0.0263803
-0.0235006
-0.0207602
-0.0181912
-0.0157902
-0.013533
-0.0113735
-0.00923644
-0.00702096
-0.00461164
-0.00190434
0.00116652
0.00459651
0.00828449
0.0120227
0.0155355
0.0185314
0.0207333
0.021921
0.0219866
0.0209293
0.0187556
0.0155409
0.0114763
0.0068058
0.00176851
-0.00336238
-0.00826109
-0.0125957
-0.016109
-0.0186486
-0.0201595
-0.0206027
-0.0199442
-0.01823
-0.0156427
-0.0124798
-0.00899948
-0.00540216
-0.00185768
0.00149485
0.00457311
0.00740595
0.0101311
0.0129612
0.0160942
0.0195784
0.0232756
0.0268476
0.0297783
0.0314913
0.031544
0.029746
0.0262625
0.0215965
0.0162975
0.0108039
0.00546772
0.000553525
-0.00377362
-0.00746069
-0.0105477
-0.0130732
-0.0149916
-0.0161994
-0.016584
-0.016083
-0.0147431
-0.0127374
-0.0102677
-0.00746343
-0.00441684
-0.00121294
0.00206506
0.00533523
0.00851469
0.0115153
0.0142514
0.0166541
0.0186995
0.0204337
0.0219871
0.0235432
0.0252418
0.0271419
0.0292179
0.0313567
0.0334037
0.0352388
0.0367975
0.0380858
0.0391849
0.0402033
0.041225
0.0423055
0.043468
0.0446961
0.0459458
0.0471801
0.0483853
0.0495735
0.0507856
0.052084
0.0535278
0.0551233
0.0568026
0.0584114
0.0597173
0.0604624
0.0604144
0.0594087
0.0573635
0.0542216
0.0499563
0.0446522
0.0385503
0.0319923
0.0252915
0.0187576
0.0127112
0.00746236
0.00327219
0.000301068
-0.0014459
-0.00209881
-0.00176749
-0.000552902
0.0013794
0.00376106
0.00625921
0.0086321
0.0107264
0.012466
0.013848
0.0149007
0.0156849
0.0163063
0.0169171
0.0176844
0.0187164
0.0200454
0.021622
0.0233154
0.024969
0.0264882
0.0278484
0.0290726
0.0301778
0.0311746
0.0320708
0.0328668
0.0335543
0.0341152
0.0345166
0.0346889
0.0345255
0.0339108
0.0327547
0.0310307
0.0288097
0.0262617
0.0235763
0.0208799
0.0182377
0.0156625
0.0131302
0.0106027
0.0080327
0.00537459
0.00259621
-0.000308644
-0.00331976
-0.00640418
-0.00952455
-0.0126347
-0.0156802
-0.0185986
-0.02132
-0.0237681
-0.0258735
-0.0275887
-0.0289014
-0.0298179
-0.0302929
-0.0302356
-0.029551
-0.0281832
-0.0261591
-0.0236119
-0.0207284
-0.0176399
-0.0144404
-0.0112073
-0.00800363
-0.00488282
-0.00188996
0.000934875
0.00355626
0.0059442
0.0080634
0.0098418
0.0111898
0.0120295
0.0123052
0.011969
0.0110242
0.0095694
0.00778903
0.00586857
0.00398009
0.00229274
0.000961292
0.000109744
-0.000194866
3.18135e-05
0.000679774
0.00159288
0.00265676
0.0037912
0.00493848
0.00606724
0.00717068
0.00826082
0.00935911
0.0104861
0.0116496
0.0128411
0.0140366
0.0152054
0.0163213
0.0173701
0.0183578
0.0193158
0.020302
0.0213936
0.0226681
0.0241754
0.0259111
0.0277927
0.0296424
0.0311861
0.032069
0.0319066
0.0303784
0.0273526
0.0229616
0.0175635
0.0114763
0.00484847
-0.00227793
-0.0098856
-0.0178901
-0.0260924
-0.0341563
-0.0416736
-0.0483693
-0.0541282
-0.0589403
-0.0627376
-0.0654036
-0.0668555
-0.0670977
-0.0662201
-0.0643519
-0.0617256
-0.0586776
-0.0555032
-0.0523792
-0.049381
-0.0464997
-0.0436863
-0.0408987
-0.0381125
-0.0353288
-0.0325764
-0.0298866
-0.0272703
-0.0247205
-0.0222466
-0.0199475
-0.0180053
-0.0166572
-0.0161588
-0.0167226
-0.0184411
-0.0212086
-0.0246699
-0.0282949
-0.0316842
-0.0347382
-0.0375614
-0.0402291
-0.0427297
-0.0449742
-0.0467962
-0.0480002
-0.0484868
-0.0482983
-0.0475086
-0.0461836
-0.0444221
-0.0423455
-0.0400155
-0.0374254
-0.0345257
-0.0312471
-0.0275328
-0.0233681
-0.0187834
-0.0138009
-0.00847137
-0.00291178
0.00268121
0.00804842
0.0128991
0.016936
0.0198933
0.021584
0.021958
0.0211429
0.0193595
0.0167501
0.0134135
0.00940987
0.00471626
-0.000710753
-0.00685756
-0.013586
-0.0205862
-0.0274248
-0.0337522
-0.0394293
-0.0444587
-0.0488087
-0.0524432
-0.0553654
-0.0575909
-0.0590719
-0.0597323
-0.0595229
-0.0584291
-0.0564092
-0.0533946
-0.0493686
-0.0444028
-0.0386198
-0.0322259
-0.0255341
-0.0188866
-0.0125632
-0.00677109
-0.00163493
0.00280478
0.0066213
0.00998623
0.0130732
0.0160354
0.0190066
0.0220637
0.0251769
0.0282134
0.030975
0.033278
0.0349973
0.0360742
0.0364723
0.0361389
0.0350475
0.0332355
0.0307904
0.0277623
0.0241701
0.0200488
0.0154623
0.0104799
0.00520298
-0.000244517
-0.00580516
-0.0114882
-0.0173147
-0.0232216
-0.029008
-0.0343431
-0.0388389
-0.0422187
-0.0444011
-0.0454918
-0.0456251
-0.0448139
-0.0430064
-0.0401266
-0.0360517
-0.0306597
-0.0239432
-0.0161239
-0.00772215
0.000476231
0.00775095
0.0139246
0.0191548
0.0235484
0.0272253
0.0303707
0.0332071
0.0359188
0.0386497
0.0415055
0.0445344
0.0476888
0.0508252
0.0537228
0.0561259
0.05778
0.0584696
0.0580366
0.0563539
0.0533972
0.0493165
0.0443984
0.038863
0.0328498
0.0264839
0.0199268
0.013407
0.00722508
0.0017063
-0.00293458
-0.00666127
-0.00964138
-0.0121692
-0.0144126
-0.0164208
-0.0181586
-0.019519
-0.0203738
-0.020643
-0.0203432
-0.0196008
-0.0185829
-0.0174195
-0.016219
-0.0150755
-0.0140648
-0.0132474
-0.0126834
-0.0124358
-0.0125543
-0.0130578
-0.0139174
-0.0150678
-0.0164624
-0.0180578
-0.0197941
-0.0216032
-0.0234394
-0.0252735
-0.027084
-0.0288539
-0.0305662
-0.0322009
-0.0337264
-0.0350921
-0.0362356
-0.0370956
-0.0376254
-0.0377944
-0.0375588
-0.0368613
-0.0356694
-0.0340109
-0.0320025
-0.0298383
-0.0277111
-0.0257892
-0.0242108
-0.0230599
-0.0223424
-0.0219681
-0.0217802
-0.0216526
-0.0214938
-0.0212435
-0.0208843
-0.020442
-0.0199805
-0.0195745
-0.0192886
-0.0191647
-0.0192085
-0.0193797
-0.0195909
-0.0197364
-0.0197671
-0.0197136
-0.0196732
-0.0197569
-0.0200052
-0.0203682
-0.0207007
-0.020777
-0.0203734
-0.0193589
-0.0177313
-0.0156079
-0.013129
-0.0104086
-0.00755678
-0.00468428
-0.0018986
0.000713358
0.00309685
0.00523813
0.00716992
0.00896957
0.0107179
0.0124411
0.0141144
0.0156928
0.0171664
0.0185829
0.020047
0.0217111
0.0237276
0.0261387
0.028767
0.0312045
0.0328526
0.033119
0.0318444
0.0293711
0.0262183
0.0227664
0.0192592
0.015801
0.0123256
0.00861896
0.00442097
-0.000363475
-0.005592
-0.0108544
-0.0155403
-0.0191071
-0.0212521
-0.0218603
-0.020897
-0.018516
-0.015109
-0.0111822
-0.00729278
-0.00404199
-0.00201159
-0.00159271
-0.00277334
-0.00507812
-0.00772358
-0.0100943
-0.0118872
-0.0130659
-0.0137291
-0.0139651
-0.0138653
-0.0135232
-0.0130224
-0.0124303
-0.0118018
-0.0111807
-0.0105924
-0.0100433
-0.00953255
-0.00905704
-0.00861407
-0.00819862
-0.00780333
-0.00741671
-0.00701949
-0.0065805
-0.00605889
-0.00540783
-0.0045842
-0.00355692
-0.00232698
-0.000944474
0.000478522
0.00176974
0.00273018
0.00321901
0.00317959
0.00262221
0.0016537
0.00048825
-0.000619946
-0.00149225
-0.00204685
-0.00230959
-0.00240165
-0.00246102
-0.00263757
-0.00308257
-0.00392235
-0.00523944
-0.00707331
-0.00939031
-0.0120481
-0.0147766
-0.0172091
-0.0189968
-0.0198957
-0.0197916
-0.0186686
-0.0165324
-0.0134632
-0.00961169
-0.00508807
-1.00667e-05
0.00543667
0.0109714
0.0162077
0.0206934
0.0240617
0.0262538
0.0275372
0.028346
0.0290125
0.0297689
0.0307553
0.0320034
0.0334558
0.0349746
0.0363559
0.0373773
0.037901
0.0380004
0.0379024
0.0377923
0.0378033
0.0380155
0.0384305
0.0389877
0.0396289
0.0403017
0.0409585
0.0415648
0.0420934
0.0425232
0.0428411
0.0430476
0.0431577
0.0432014
0.0432129
0.043215
0.0432189
0.0432268
0.0432328
0.0432251
0.0431897
0.0431151
0.0429964
0.0428382
0.0426537
0.0424641
0.0422971
0.0421836
0.0421504
0.0422113
0.0423568
0.0425451
0.0426979
0.0427063
0.0424394
0.0417627
0.0405664
0.0387924
0.0364463
0.0336082
0.0304621
0.0272782
0.0243119
0.0217343
0.0196181
0.0179355
0.0166127
0.0155833
0.014775
0.0140954
0.0134324
0.0126571
0.0116527
0.0103794
0.00889705
0.00735182
0.00591663
0.00472401
0.0038514
0.00330625
0.0030402
0.00301641
0.00319956
0.0035396
0.00396852
0.00439683
0.00472446
0.00487374
0.00481397
0.0045702
0.00422861
0.00393036
0.00381308
0.00388635
0.00407743
0.00431886
0.00454262
0.00468093
0.00467993
0.00451432
0.00420035
0.00380261
0.00342403
0.00316176
0.00306127
0.0031088
0.00324112
0.00339219
0.00354274
0.00372415
0.00401637
0.00453033
0.00536147
0.00656408
0.00812678
0.00995195
0.0118842
0.0138112
0.015669
0.0174396
0.0191586
0.0208985
0.0227246
0.0246797
0.0267724
0.0289638
0.0311716
0.0333039
0.0352742
0.0370136
0.0384864
0.0396956
0.0406649
0.0414392
0.0420808
0.0426496
0.0432031
0.0437911
0.0444351
0.0450871
0.0456207
0.0458461
0.0455455
0.0445479
0.0428067
0.0404364
0.0376675
0.0346788
0.031601
0.0285278
0.0255006
0.0225009
0.0194417
0.0161675
0.0124769
0.00816136
0.00305556
-0.00291042
-0.00968772
-0.0171517
-0.0250568
-0.0330277
-0.0406262
-0.0473839
-0.0528774
-0.0568922
-0.0595668
-0.0613687
-0.0628332
-0.0642962
-0.0658809
-0.0674897
-0.0687907
-0.0692655
-0.0683411
-0.0657115
-0.061653
-0.0566587
-0.0510446
-0.0450103
-0.0386789
-0.0320991
-0.025276
-0.0182297
-0.0110476
-0.00392238
0.00282723
0.00879134
0.0135726
0.0168713
0.0185758
0.0188531
0.0180851
0.0165716
0.0145688
0.0123476
0.0101659
0.00820926
0.00657093
0.00526648
0.00426574
0.00352406
0.00296968
0.0024937
0.0019452
0.00113562
-0.000142953
-0.00206689
-0.00469273
-0.00790929
-0.0114123
-0.014751
-0.017523
-0.0195033
-0.0206703
-0.0211558
-0.0210512
-0.0203783
-0.0191325
-0.0173098
-0.0149451
-0.0121484
-0.00911822
-0.00607698
-0.00320145
-0.000626803
0.00154554
0.00323872
0.00441739
0.00511668
0.0054411
0.00550353
0.00536505
0.00505722
0.00460524
0.00404737
0.00345726
0.0029641
0.00275136
0.00303583
0.00402593
0.0058657
0.00856497
0.0119338
0.0155432
0.0187877
0.0211265
0.0222509
0.0221106
0.020821
0.0184857
0.0152556
0.0113856
0.00720504
0.00300355
-0.000995011
-0.00462107
-0.00776922
-0.0104094
-0.0125983
-0.014457
-0.0160877
-0.0175309
-0.0187806
-0.0197994
-0.0205367
-0.0209457
-0.0209923
-0.0206774
-0.0200596
-0.0192352
-0.0182531
-0.0171
-0.0157184
-0.0140275
-0.011947
-0.00943067
-0.00650109
-0.00327995
2.59616e-05
0.00320919
0.00609269
0.00854295
0.010501
0.0120076
0.0132152
0.0143209
0.0153898
0.0163526
0.0170552
0.0173478
0.0171617
0.0165397
0.015643
0.0146748
0.0137955
0.0131139
0.0126757
0.0124422
0.0123034
0.0121346
0.0118065
0.0111992
0.0102307
0.00888538
0.00723866
0.00546543
0.00379144
0.0023639
0.00123395
0.000379721
-0.000229472
-0.00062465
-0.000853095
-0.00098155
-0.00109776
-0.00130426
-0.00169842
-0.00233902
-0.00323302
-0.00432517
-0.00550547
-0.00665109
-0.00764264
-0.00837409
-0.00877332
-0.00882534
-0.00859241
-0.00822278
-0.00791337
-0.00780513
-0.00796578
-0.00838276
-0.00897769
-0.00967587
-0.0104054
-0.0110948
-0.0116825
-0.0121234
-0.0123915
-0.0124694
-0.0123395
-0.0119941
-0.0114463
-0.0107393
-0.00995145
-0.00918207
-0.00850214
-0.00792277
-0.00739234
-0.00679712
-0.00597333
-0.00473717
-0.00294957
-0.00062053
0.00204565
0.00463845
0.00660679
0.00747168
0.00698785
0.00521202
0.00244787
-0.00101277
-0.00485996
-0.00874253
-0.0123421
-0.0154187
-0.0178354
-0.0195623
-0.0206447
-0.0211925
-0.0213931
-0.0214697
-0.0216034
-0.0219329
-0.0225585
-0.0235444
-0.0249288
-0.0267038
-0.0287946
-0.0310461
-0.0332362
-0.0351441
-0.0366284
-0.0376457
-0.0382632
-0.038622
-0.0388155
-0.0388897
-0.0388563
-0.0386927
-0.0383551
-0.037797
-0.0369944
-0.0359705
-0.0348134
-0.033659
-0.0326231
-0.0317913
-0.0312091
-0.0308653
-0.0307011
-0.0306599
-0.0306968
-0.0307719
-0.0308498
-0.0308994
-0.030893
-0.0308059
-0.0306165
-0.0303087
-0.0298752
-0.0293213
-0.0286554
-0.0278642
-0.0269203
-0.0257959
-0.0244735
-0.0229521
-0.0212364
-0.0193395
-0.0172957
-0.0151704
-0.0130559
-0.0110446
-0.00918213
-0.00745685
-0.00579304
-0.00405262
-0.00206395
0.000307165
0.00312198
0.00633467
0.00976425
0.0131116
0.0160585
0.0183455
0.0198107
0.0204303
0.0203076
0.0195429
0.0181766
0.016232
0.0137529
0.0108334
0.00762687
0.00429865
0.00100323
-0.00211491
-0.00495176
-0.00745691
-0.00964442
-0.0115901
-0.0133839
-0.015082
-0.0167093
-0.0182633
-0.0197104
-0.0209806
-0.0219799
-0.0226133
-0.0228079
-0.0225376
-0.0218489
-0.0208527
-0.0196543
-0.0183418
-0.0169937
-0.0156679
-0.0143765
-0.0130858
-0.0117225
-0.0101857
-0.00836662
-0.00617569
-0.00357472
-0.000613049
0.00254754
0.00562829
0.00828719
0.0102186
0.0112079
0.0111926
0.010322
0.00896397
0.00755278
0.00632962
0.00533713
0.00449542
0.00375602
0.00311199
0.00259029
0.00225182
0.00216593
0.0023982
0.00298557
0.00390823
0.00506731
0.00631031
0.00752647
0.00865195
0.00966936
0.0106157
0.0115676
0.012611
0.0138292
0.0152873
0.0170182
0.0190216
0.0212464
0.0235701
0.0257901
0.0276335
0.0288025
0.0290637
0.0283116
0.0266241
0.0242837
0.0216582
0.0189874
0.0163947
0.0139441
0.0116931
0.00969287
0.0079819
0.00658768
0.00552009
0.00476419
0.0042841
0.00406846
0.00416637
0.00465695
0.00560952
0.0070442
0.00889164
0.0109711
0.0130246
0.0147989
0.016064
0.0166436
0.0164613
0.0155635
0.0140852
0.0122314
0.0102556
0.00839577
0.00686381
0.00582792
0.00538073
0.00550919
0.00609231
0.00696001
0.00792151
0.00875556
0.00921721
0.0090627
0.00808926
0.00618789
0.00340019
-3.72042e-05
-0.00372736
-0.00728388
-0.0103864
-0.0127994
-0.0144159
-0.0152942
-0.0156399
-0.0156764
-0.0155728
-0.0154492
-0.0153752
-0.0153655
-0.0153841
-0.0153571
-0.0151959
-0.0148197
-0.0141786
-0.0132738
-0.012172
-0.0109925
-0.00985353
-0.00883172
-0.00795094
-0.0071697
-0.00638111
-0.00544081
-0.00420653
-0.00256357
-0.000457459
0.00207542
0.00490229
0.00785458
0.0107927
0.0136038
0.0161998
0.018514
0.0204668
0.0219399
0.0227993
0.0229313
0.0222818
0.0208958
0.0189014
0.016386
0.0133763
0.00991871
0.00611559
0.00213766
-0.00181174
-0.00557383
-0.00903437
-0.0121237
-0.0148076
-0.0170326
-0.0187113
-0.0197598
-0.0201412
-0.0199063
-0.0192263
-0.0183566
-0.0174877
-0.0167069
-0.016009
-0.0153093
-0.0145025
-0.0135253
-0.0123711
-0.0110812
-0.0096985
-0.00825875
-0.00679633
-0.00534047
-0.003913
-0.00252754
-0.00119535
7.40501e-05
0.00127056
0.00238093
0.00338174
0.00422436
0.00482494
0.00507645
0.00486759
0.00409736
0.00267764
0.00056389
-0.00221455
-0.005583
-0.00948676
-0.0138554
-0.0185711
-0.0234915
-0.0284955
-0.0334667
-0.0382754
-0.0427778
-0.0468194
-0.0502426
-0.0528988
-0.0546867
-0.0555744
-0.0555536
-0.0546065
-0.0527699
-0.0501922
-0.0471056
-0.0436913
-0.0401024
-0.0364948
-0.0330196
-0.0298008
-0.0268626
-0.0240698
-0.0211383
-0.0177339
-0.0136771
-0.00899055
-0.00386946
0.00144092
0.00672311
0.0117786
0.0164367
0.0205458
0.0239753
0.0266467
0.028548
0.0296959
0.0301613
0.0301086
0.0297917
0.0294557
0.0292374
0.0291674
0.0291957
0.0292395
0.029192
0.0289331
0.0283555
0.0273901
0.0260333
0.0243546
0.0224657
0.0204828
0.0185328
0.0167489
0.0152595
0.0141707
0.0135464
0.0133866
0.0136207
0.0141475
0.0149102
0.0158832
0.0170533
0.01841
0.0199344
0.0216133
0.0234977
0.025676
0.0281924
0.0310163
0.0340228
0.0369884
0.0396481
0.0417976
0.0433247
0.0442335
0.0446242
0.0445711
0.0441101
0.0432696
0.0420802
0.0405688
0.0387804
0.0368076
0.034808
0.0329883
0.031534
0.0305708
0.0301323
0.0301251
0.0303164
0.0303926
0.0300735
0.029146
0.0275009
0.0251884
0.0224444
0.0196833
0.0172881
0.0152247
0.0133683
0.0116222
0.00987418
0.00802263
0.00600043
0.00381297
0.00155322
-0.000595834
-0.00240898
-0.00371827
-0.00445806
-0.00469389
-0.0046157
-0.00442968
-0.00429443
-0.00431218
-0.00451306
-0.00483778
-0.00514097
-0.00523419
-0.00496229
-0.00423557
-0.00305877
-0.00153716
0.000187793
0.00200744
0.00383942
0.00562217
0.00731454
0.00887812
0.0102358
0.0112653
0.0118144
0.0117286
0.0108915
0.00927479
0.00697025
0.00416638
0.00107997
-0.00210354
-0.00521632
-0.00810027
-0.0106137
-0.012641
-0.0141105
-0.015005
-0.0153331
-0.0150764
-0.0142259
-0.0128239
-0.0109902
-0.0088957
-0.00663961
-0.00423456
-0.00163712
0.00122505
0.00440476
0.00784924
0.0113278
0.014446
0.0167556
0.0179368
0.0178713
0.0167007
0.0147804
0.0124271
0.00986407
0.0072423
0.00463037
0.00201205
-0.000710362
-0.00369974
-0.00714963
-0.0112265
-0.0160061
-0.0214073
-0.0271457
-0.0327346
-0.0375945
-0.0411929
-0.0431367
-0.0432742
-0.041793
-0.0391428
-0.0356965
-0.0317845
-0.0277484
-0.0239167
-0.0205611
-0.0178541
-0.0158483
-0.0144517
-0.0134318
-0.0124882
-0.0113364
-0.00972497
-0.00746638
-0.00448403
-0.00085512
0.00316871
0.0072139
0.0108964
0.0138485
0.0157597
0.0164406
0.0158707
0.0141651
0.0114835
0.00807995
0.0043376
0.000677776
-0.0026759
-0.00570941
-0.00858002
-0.0115285
-0.0147197
-0.0182035
-0.021882
-0.0254872
-0.0286062
-0.030823
-0.0320528
-0.0325581
-0.0324924
-0.0319235
-0.030904
-0.0294737
-0.0276809
-0.0255974
-0.0233257
-0.0209561
-0.0185275
-0.0160414
-0.0134785
-0.0108075
-0.00800019
-0.0050453
-0.00196316
0.00118149
0.00427065
0.00714154
0.00961511
0.0115336
0.0127944
0.0133879
0.0133999
0.0129403
0.0121132
0.0110433
0.009873
0.00872132
0.00767576
0.00679647
0.00611348
0.00562492
0.00530236
0.00511949
0.0050767
0.00519271
0.00549157
0.00598932
0.00667889
0.00752201
0.00846621
0.00948069
0.0105503
0.0116691
0.012838
0.0140615
0.0153406
0.0166669
0.0180161
0.019345
0.0205955
0.02171
0.0226456
0.0233837
0.0239386
0.0243569
0.0246851
0.024918
0.0250012
0.024841
0.0243188
0.0233174
0.0217558
0.019625
0.0170042
0.0140158
0.0107783
0.00741688
0.00405212
0.00074362
-0.00251085
-0.00576408
-0.00909405
-0.0125799
-0.0162813
-0.020216
-0.0243365
-0.0285204
-0.0325893
-0.0363562
-0.0396442
-0.0423146
-0.0442905
-0.0455535
-0.0461362
-0.0461561
-0.0457878
-0.0451408
-0.0442774
-0.0432436
-0.0420833
-0.0408571
-0.0396492
-0.0385576
-0.0376822
-0.0371144
-0.0369165
-0.0370954
-0.0375788
-0.0382275
-0.0389017
-0.0394599
-0.0397596
-0.039678
-0.0391364
-0.0381285
-0.0367416
-0.0351378
-0.0334676
-0.0318484
-0.030366
-0.0290663
-0.0279489
-0.026971
-0.0260789
-0.0252377
-0.0244335
-0.0236726
-0.0229799
-0.022391
-0.0219405
-0.0216474
-0.0215013
-0.0214585
-0.0214616
-0.0214503
-0.0213626
-0.0211402
-0.0207406
-0.0201488
-0.019387
-0.0185046
-0.0175585
-0.0166176
-0.0157656
-0.0150954
-0.0147003
-0.0146572
-0.0150055
-0.0157229
-0.0167153
-0.0178479
-0.0190081
-0.020103
-0.0210579
-0.0218248
-0.0223906
-0.0227797
-0.0230385
-0.0231893
-0.0232329
-0.0231581
-0.0229486
-0.0225946
-0.0221031
-0.0214935
-0.0207852
-0.0200076
-0.0192088
-0.0184557
-0.0178293
-0.0174109
-0.0172589
-0.0173793
-0.017705
-0.0180825
-0.018284
-0.0180688
-0.0172585
-0.0157766
-0.013685
-0.0111742
-0.00845693
-0.00570673
-0.00306373
-0.000626594
0.00155779
0.0035004
0.0052442
0.00680402
0.00816446
0.00929234
0.0101458
0.0106942
0.0109377
0.0109163
0.0106779
0.0102495
0.00965288
0.00891799
0.00807935
0.00716788
0.00621868
0.00527976
0.00441313
0.00369181
0.00318484
0.00294568
0.00299721
0.00331863
0.00385046
0.00454001
0.00536229
0.00631185
0.00739736
0.00864712
0.0101061
0.0118143
0.0137791
0.0159513
0.0182051
0.0203519
0.0221932
0.0235421
0.0242504
0.0242485
0.0235472
0.0221809
0.020247
0.0179394
0.0155127
0.0132093
0.0112537
0.00984042
0.0090985
0.00905498
0.00960137
0.0105104
0.011544
0.0125174
0.0132982
0.0138157
0.0140713
0.014129
0.0140675
0.0139517
0.0138293
0.0137278
0.013651
0.0135818
0.0134878
0.013332
0.0130845
0.0127365
0.0123104
0.0118644
0.0114923
0.0113195
0.011487
0.0121258
0.0133214
0.0150768
0.0172812
0.0197304
0.0222312
0.0246297
0.0268104
0.0287106
0.0303303
0.0317203
0.0329269
0.0339809
0.0349034
0.0357092
0.0364061
0.0369853
0.0374155
0.0376594
0.0376907
0.0375109
0.0371564
0.0366816
0.0361218
0.0354989
0.0348286
0.0341219
0.0333893
0.0326433
0.0319012
0.0311825
0.030502
0.0298647
0.0292614
0.0286622
0.0280133
0.0272371
0.0262345
0.0248935
0.0231156
0.0208507
0.0181329
0.015108
0.0120136
0.00908571
0.00654579
0.00458271
0.00331156
0.00273605
0.00273156
0.00310873
0.00373223
0.00450979
0.00537396
0.00627984
0.00719601
0.00810086
0.00898583
0.00984962
0.0106896
0.0114977
0.012258
0.0129467
0.0135262
0.0139306
0.0140722
0.0138627
0.0132373
0.0121824
0.0107584
0.00908561
0.00726754
0.00537677
0.00346676
0.00157245
-0.000286885
-0.0021042
-0.00387678
-0.00559517
-0.00723561
-0.00875994
-0.0101186
-0.0112591
-0.0121355
-0.0127149
-0.0129576
-0.0127829
-0.0120988
-0.0108428
-0.00901922
-0.00673304
-0.0041757
-0.00152833
0.00105801
0.0034559
0.00557297
0.00736496
0.00884611
0.0100724
0.0110804
0.0118778
0.0124596
0.0128207
0.0129702
0.0129421
0.0127814
0.0125127
0.0121512
0.011713
0.0112178
0.0106823
0.0101094
0.00949016
0.00880814
0.00804199
0.00717128
0.00618192
0.0102593
0.0090309
0.00766901
0.0061406
0.00441092
0.00245805
0.000291464
-0.00203296
-0.00441334
-0.00673283
-0.00887058
-0.0107117
-0.0121671
-0.0132006
-0.0138513
-0.0142423
-0.0145358
-0.0148518
-0.0152633
-0.0157961
-0.0164226
-0.0170791
-0.0176951
-0.0182051
-0.0185609
-0.0187495
-0.0188043
-0.0188097
-0.0188852
-0.0191533
-0.0197176
-0.0206359
-0.021888
-0.0233511
-0.0247928
-0.025909
-0.0263996
-0.0260184
-0.024636
-0.0223101
-0.0193347
-0.0162
-0.0133875
-0.0112283
-0.00986763
-0.00922536
-0.00904022
-0.00905366
-0.009017
-0.00869397
-0.00790048
-0.00653931
-0.00463393
-0.00234199
9.22653e-05
0.00248286
0.00471154
0.00672075
0.00849139
0.00999608
0.0112057
0.0121022
0.0126871
0.0129953
0.0131001
0.0130902
0.0130221
0.0129297
0.0128328
0.0127413
0.0126579
0.0125811
0.0125072
0.0124327
0.0123548
0.0122714
0.012181
0.0120839
0.0119821
0.0118809
0.0117899
0.0117257
0.0117134
0.011791
0.0120065
0.0124128
0.0130644
0.0140223
0.015338
0.0170292
0.0190581
0.0213308
0.0237455
0.0262423
0.0287911
0.0313811
0.0340116
0.0366798
0.039363
0.0420084
0.0445253
0.0467898
0.0486569
0.0499888
0.0506922
0.0507554
0.0502769
0.0494282
0.0483194
0.0470101
0.0455331
0.0438971
0.0420896
0.0400585
0.0377216
0.0350024
0.0318741
0.0284039
0.0247929
0.0213787
0.0186036
0.0168633
0.0162164
0.016338
0.0166531
0.0167311
0.0165106
0.0161861
0.0159358
0.0158529
0.015952
0.0161748
0.0164715
0.016839
0.0172998
0.0178729
0.0185669
0.0193754
0.0202704
0.0211949
0.0220698
0.0228205
0.023382
0.023705
0.0237665
0.0235702
0.0231215
0.0224049
0.0214013
0.020105
0.0185382
0.0167543
0.0148064
0.0126903
0.0103603
0.00775101
0.00479823
0.00145447
-0.00230926
-0.0064632
-0.0108796
-0.0153213
-0.0194861
-0.0230975
-0.025912
-0.0277088
-0.0283267
-0.0277342
-0.0260854
-0.0236684
-0.0206968
-0.0173436
-0.0137915
-0.0102212
-0.00677531
-0.00356474
-0.000679482
0.00181778
0.00388941
0.00550843
0.00666481
0.00739869
0.00782423
0.00812541
0.00849575
0.00909784
0.0100483
0.0113925
0.013073
0.01491
0.0166009
0.017785
0.0181973
0.0177412
0.0164934
0.0146218
0.0123031
0.00975169
0.00723135
0.00501526
0.00329375
0.00213572
0.00147979
0.00117485
0.00110471
0.0011842
0.00134515
0.00153883
0.00173155
0.00190597
0.00206772
0.00223762
0.00244135
0.00270266
0.00303589
0.00344083
0.00390027
0.00438576
0.00486369
0.00529672
0.00564646
0.00587966
0.00597535
0.00593253
0.00577619
0.00555209
0.00530442
0.00507716
0.0049152
0.00486015
0.0049449
0.00518637
0.00557893
0.00609035
0.0066757
0.00731695
0.00801876
0.0087983
0.00967755
0.0106709
0.0117723
0.0129444
0.0141216
0.0152231
0.016154
0.0168113
0.0171012
0.0169606
0.0163795
0.0154124
0.0141438
0.0126263
0.010899
0.00901008
0.00702681
0.00503569
0.00311942
0.00134344
-0.000244194
-0.0016189
-0.00278662
-0.00378708
-0.00467474
-0.00548752
-0.00625003
-0.00697911
-0.00768412
-0.00836938
-0.00903471
-0.00967454
-0.0102741
-0.0108126
-0.0112671
-0.0116174
-0.0118511
-0.0119695
-0.0119913
-0.0119461
-0.0118506
-0.0117062
-0.0115045
-0.0112327
-0.0108801
-0.0104466
-0.00994902
-0.00942029
-0.00889531
-0.00841282
-0.00801577
-0.00774613
-0.00763758
-0.00770625
-0.0079418
-0.00830497
-0.00874336
-0.00922016
-0.00971047
-0.0101971
-0.01067
-0.0111245
-0.0115592
-0.0119749
-0.0123725
-0.0127528
-0.013116
-0.013463
-0.0137958
-0.0141189
-0.0144399
-0.0147692
-0.0151189
-0.0155005
-0.0159211
-0.0163799
-0.016865
-0.0173551
-0.0178285
-0.0182627
-0.0186349
-0.0189248
-0.0191184
-0.0192133
-0.0192212
-0.0191668
-0.0190736
-0.0189586
-0.0188348
-0.0187117
-0.0185961
-0.0184927
-0.018404
-0.0183309
-0.0182717
-0.0182226
-0.0181773
-0.0181291
-0.0180734
-0.0180083
-0.0179342
-0.0178547
-0.0177761
-0.0177074
-0.017659
-0.0176407
-0.0176596
-0.0177173
-0.0178074
-0.0179178
-0.0180371
-0.0181562
-0.0182656
-0.0183544
-0.0184107
-0.0184219
-0.0183761
-0.018265
-0.0180862
-0.0178469
-0.0175629
-0.0172522
-0.0169277
-0.0165999
-0.0162781
-0.0159704
-0.0156841
-0.0154252
-0.0151973
-0.0150004
-0.0148296
-0.0146752
-0.0145247
-0.0143692
-0.0142017
-0.0140178
-0.0138155
-0.0135958
-0.0133615
-0.0131146
-0.0128551
-0.0125819
-0.0122946
-0.0119941
-0.011684
-0.0113702
-0.0110575
-0.0107499
-0.0104513
-0.0101653
-0.00989489
-0.00964249
-0.00940891
-0.00919305
-0.00899153
-0.00879952
-0.0086135
-0.00843159
-0.00825292
-0.00807736
-0.00790511
-0.00773623
-0.00757012
-0.0074052
-0.00723871
-0.00706683
-0.00688517
-0.00668961
-0.00647741
-0.00624849
-0.0060063
-0.00575759
-0.0055094
-0.00526637
-0.00503141
-0.00480627
-0.0045917
-0.00438777
-0.00419424
-0.00401108
-0.00383893
-0.00367907
-0.0035331
-0.00340254
-0.0032882
-0.00318961
-0.00310459
-0.00303016
-0.00296528
-0.00291068
-0.00286751
-0.00283629
-0.00281575
-0.00280192
-0.00278786
-0.00276556
-0.00273058
-0.00268181
-0.00262045
-0.00254878
-0.00246886
-0.00238263
-0.00229173
-0.00219736
-0.00210012
-0.00199996
-0.00189614
-0.0017873
-0.00167139
-0.00154622
-0.00141002
-0.0012622
-0.00110399
-0.000938753
-0.000771434
-0.00060636
-0.000446378
-0.000293347
-0.000148366
-1.18737e-05
0.000116256
0.000236601
0.000350092
0.000457789
0.000560506
0.000658709
0.000752698
0.000842766
0.000929335
0.00101304
0.00109463
0.00117466
0.00125352
0.00133143
0.00140855
0.00148495
0.00156063
0.00163554
0.00170959
0.00178271
0.00185483
0.00192594
0.00199607
0.00206529
0.00213375
0.00220155
0.00226876
0.00233541
0.00240148
0.00246694
0.00253176
0.00259589
0.00265931
0.00272199
0.00278391
0.00284508
0.00290548
0.0029651
0.00302391
0.00308188
0.00313897
0.00319514
0.00325035
0.00330458
0.0033578
0.00340999
0.00346113
0.0035112
0.0035602
0.00360811
0.00365491
0.00370059
0.00374514
0.00378854
0.00383078
0.00387183
0.0039117
0.00395036
0.00398783
0.00402409
0.00405915
0.00409301
0.00412567
0.00415711
0.00418734
0.00421635
0.00424414
0.00427068
0.004296
0.00432007
0.00434291
0.0043645
0.00438486
0.00440396
0.00442183
