0.00687875
0.00683115
0.00681686
0.00684317
0.00691333
0.00702688
0.00718017
0.00736688
0.00757768
0.00780279
0.00803395
0.00826538
0.00849394
0.00872193
0.00895757
0.00921014
0.00948046
0.00976078
0.0100345
0.010277
0.010456
0.0105346
0.0104736
0.0102346
0.00978376
0.00910038
0.00817903
0.00702124
0.00562718
0.00400557
0.00218027
0.000191872
-0.00190809
-0.00405754
-0.006192
-0.0082591
-0.0102391
-0.0121426
-0.0139921
-0.0158164
-0.0176618
-0.0195887
-0.0216553
-0.0239103
-0.0263898
-0.0291108
-0.0320679
-0.0352235
-0.0384923
-0.0417201
-0.0446586
-0.0469815
-0.0483202
-0.0483173
-0.0467011
-0.0433616
-0.0384116
-0.0322193
-0.0253183
-0.018157
-0.0111004
-0.00438705
0.00188459
0.0076876
0.0129395
0.0175057
0.0212562
0.0241003
0.0260072
0.0270254
0.0272841
0.0269107
0.0260134
0.0247236
0.0231694
0.021414
0.0194922
0.0174432
0.0153241
0.0132231
0.0112637
0.00959601
0.00837552
0.00773146
0.00772939
0.00833641
0.00939129
0.010609
0.0116426
0.0121218
0.011684
0.0100621
0.00712646
0.00290422
-0.00247844
-0.00897004
-0.0165654
-0.0252142
-0.0347905
-0.0451235
-0.0560155
-0.0671781
-0.0781995
-0.0885951
-0.0979466
-0.105903
-0.11219
-0.116628
-0.119079
-0.119367
-0.117387
-0.113144
-0.106634
-0.0977774
-0.0865875
-0.0732469
-0.0580458
-0.0415039
-0.0243725
-0.00742152
0.00865228
0.0232129
0.0357786
0.0460772
0.0540713
0.059888
0.063699
0.0657628
0.0663216
0.0655064
0.0634653
0.0604192
0.0566102
0.0523059
0.0478485
0.0436031
0.0397852
0.0364366
0.033447
0.0305597
0.0274097
0.023631
0.0189579
0.0132441
0.0064876
-0.00115922
-0.00945341
-0.0181076
-0.0267512
-0.0349306
-0.042169
-0.0480233
-0.0521397
-0.0543576
-0.054845
-0.0540703
-0.0525715
-0.0506534
-0.0484804
-0.04616
-0.0437602
-0.0413205
-0.0388491
-0.0363488
-0.0338333
-0.0313373
-0.0289108
-0.0265973
-0.0244183
-0.0223707
-0.0204203
-0.0185015
-0.0165375
-0.0144883
-0.0123479
-0.0101431
-0.00793673
-0.0058298
-0.00395396
-0.00245828
-0.00148278
-0.0011314
-0.00144193
-0.00236369
-0.00376562
-0.00546316
-0.00718743
-0.00857541
-0.00920745
-0.00869564
-0.00673629
-0.0031576
0.00203326
0.0086508
0.0163757
0.0247524
0.0333304
0.0417864
0.0498659
0.0573395
0.0639854
0.0695921
0.0739922
0.0770695
0.0787393
0.0790212
0.0781028
0.076362
0.0742453
0.0719686
0.0695928
0.0671069
0.0644638
0.0616425
0.0586788
0.0556695
0.0527574
0.0500659
0.0476118
0.0453227
0.0430874
0.0408545
0.0386636
0.0366065
0.0347759
0.0332135
0.0318955
0.0307241
0.0295181
0.0280197
0.0259195
0.0228932
0.0186522
0.0130307
0.00609387
-0.00181656
-0.010083
-0.0179263
-0.0247575
-0.0304454
-0.0351348
-0.0389413
-0.0420066
-0.0445039
-0.0465327
-0.0481241
-0.0492783
-0.0499847
-0.0502352
-0.0499973
-0.0491384
-0.0474804
-0.0448588
-0.0411553
-0.0362818
-0.0301488
-0.0227548
-0.0142677
-0.00504979
0.00439111
0.0134618
0.0214826
0.0277759
0.0318532
0.0335056
0.0328141
0.0300632
0.0256767
0.0203066
0.0147604
0.00970696
0.00564657
0.00294865
0.00183672
0.00237753
0.00444179
0.00766765
0.0114845
0.0153114
0.0188273
0.0219164
0.0246129
0.0270781
0.0295221
0.032107
0.0349373
0.0380516
0.041405
0.0448756
0.0483066
0.0515458
0.0544334
0.0567877
0.0583698
0.0588715
0.0579696
0.0553704
0.0508283
0.0442057
0.0355685
0.0251935
0.0134555
0.000863403
-0.0119128
-0.0242267
-0.0357132
-0.046181
-0.0554301
-0.0632276
-0.0693706
-0.0737325
-0.0762859
-0.077138
-0.0764516
-0.0743074
-0.0707937
-0.0660081
-0.0599904
-0.0528289
-0.0447445
-0.0360791
-0.027175
-0.0183298
-0.0098356
-0.0019418
0.00524498
0.0117546
0.0176986
0.0231616
0.028161
0.0326856
0.0366845
0.0400116
0.0424591
0.0438315
0.0440136
0.0430403
0.0411463
0.0387524
0.0363192
0.0342246
0.0328004
0.0323463
0.0331271
0.0353673
0.039177
0.0444817
0.0510066
0.0583351
0.0659191
0.0732096
0.0797174
0.0849894
0.0886209
0.090287
0.0898012
0.0871486
0.08244
0.0759618
0.0681142
0.0591525
0.0493145
0.0389356
0.0284506
0.0183189
0.0090195
0.00104453
-0.00517618
-0.00942215
-0.0118005
-0.0126546
-0.012298
-0.0110437
-0.00929897
-0.00752836
-0.00609365
-0.00524396
-0.00514727
-0.00588954
-0.00748323
-0.0099076
-0.0131042
-0.0169385
-0.0211926
-0.025642
-0.0301646
-0.0346909
-0.0391552
-0.0434658
-0.0474622
-0.0509166
-0.0535534
-0.0550843
-0.0552525
-0.0538937
-0.0509983
-0.046757
-0.0414974
-0.0354639
-0.0288404
-0.0218323
-0.0146863
-0.0076387
-0.000835399
0.00564043
0.0117435
0.0174581
0.0227705
0.0276059
0.0317869
0.0350737
0.0372033
0.0379145
0.0369913
0.0343367
0.0299979
0.0240706
0.0166465
0.00793889
-0.00162973
-0.0114256
-0.0207485
-0.0290549
-0.0359321
-0.0410737
-0.0442491
-0.0453081
-0.0442899
-0.0414971
-0.03749
-0.0329745
-0.0285537
-0.0246336
-0.0214774
-0.0192058
-0.017772
-0.0169632
-0.0164491
-0.0159242
-0.0152243
-0.0142982
-0.0131863
-0.0120038
-0.0108909
-0.00994865
-0.00922888
-0.00872601
-0.00836874
-0.00803928
-0.00762915
-0.00704977
-0.00623314
-0.00514061
-0.0037709
-0.00214869
-0.000286323
0.0018115
0.00412988
0.00663768
0.00929206
0.0120681
0.0149774
0.0180488
0.0213082
0.0247627
0.0283834
0.0320954
0.035779
0.0392841
0.0424251
0.0449867
0.0467406
0.04746
0.0469181
0.0449082
0.0413218
0.0362148
0.0298309
0.0224968
0.0144623
0.00597891
-0.00266198
-0.0111981
-0.0194104
-0.0270997
-0.0340699
-0.0401202
-0.0450703
-0.0488025
-0.0512767
-0.0525006
-0.0525505
-0.0516327
-0.0500613
-0.0481104
-0.0459703
-0.0438083
-0.0417941
-0.0400953
-0.0388432
-0.0380825
-0.0377616
-0.0377264
-0.0377337
-0.0375165
-0.0368434
-0.0355156
-0.0333766
-0.0303291
-0.02633
-0.0213749
-0.0155464
-0.00904539
-0.00216445
0.00485202
0.0119091
0.0190053
0.0261666
0.0333781
0.0405618
0.0475801
0.0542448
0.0603638
0.0658016
0.0704911
0.0744378
0.0776737
0.0801328
0.0817105
0.0823252
0.0819316
0.0804937
0.0779998
0.0745104
0.0701345
0.0649755
0.0591902
0.0530291
0.0468012
0.0407422
0.0349047
0.0292008
0.0234486
0.0174583
0.0111388
0.00450197
-0.00234544
-0.00922777
-0.0159815
-0.0224426
-0.0284434
-0.0338119
-0.0383642
-0.041941
-0.0444502
-0.0458662
-0.046188
-0.0454993
-0.0440177
-0.0420715
-0.0399687
-0.0378893
-0.0359314
-0.0341391
-0.0325084
-0.0309954
-0.0295288
-0.0280386
-0.0264793
-0.0248351
-0.0231242
-0.0214041
-0.019777
-0.0183932
-0.0174346
-0.0170893
-0.01752
-0.0188303
-0.0210439
-0.0240926
-0.0277781
-0.0317827
-0.0357653
-0.0393991
-0.0423549
-0.0443125
-0.0449883
-0.0441674
-0.041767
-0.0378964
-0.0328875
-0.02722
-0.021266
-0.015203
-0.00908665
-0.00289591
0.00343702
0.00998411
0.0167997
0.0238972
0.0312331
0.0387129
0.0462534
0.0538228
0.0614056
0.0689414
0.0762265
0.0828863
0.088431
0.0923355
0.0941796
0.0938145
0.0914164
0.0874687
0.0825333
0.0769226
0.0708145
0.0643508
0.0576585
0.0508434
0.043934
0.0369177
0.0297698
0.0224584
0.0149259
0.0071091
-0.00103369
-0.00949137
-0.0181613
-0.02681
-0.0350851
-0.0425494
-0.0487626
-0.0534465
-0.0566169
-0.0585447
-0.0595554
-0.0597723
-0.0592113
-0.0578619
-0.0557
-0.0527284
-0.049025
-0.0447688
-0.0401918
-0.0354973
-0.0308903
-0.026573
-0.0226805
-0.0192634
-0.0162835
-0.0136111
-0.0110512
-0.00843628
-0.00570024
-0.00285827
1.48352e-05
0.00281483
0.0054535
0.00786147
0.00999494
0.0118448
0.0134295
0.0147603
0.0158503
0.0167335
0.0174746
0.0181638
0.0188929
0.0197438
0.0207915
0.0220986
0.0237065
0.0256241
0.0278313
0.0302972
0.0329587
0.0357014
0.0383574
0.0407223
0.0425778
0.0437057
0.0439124
0.0430628
0.041105
0.0380863
0.0341689
0.0295563
0.0243745
0.0187424
0.0128256
0.00685311
0.00109015
-0.00424769
-0.00901156
-0.0131164
-0.016553
-0.0193738
-0.0216345
-0.0233856
-0.0247172
-0.0257815
-0.0267966
-0.0279846
-0.0294391
-0.0311415
-0.0329905
-0.0348402
-0.0365568
-0.0380103
-0.0390732
-0.0396287
-0.0395794
-0.0388325
-0.0372546
-0.034713
-0.0311147
-0.0264008
-0.0205312
-0.0135591
-0.0056912
0.00269981
0.0111745
0.0193773
0.0270064
0.0338162
0.0396835
0.0446186
0.0487234
0.0520497
0.0545076
0.0559437
0.0562247
0.0553037
0.0532678
0.050301
0.0465357
0.0420869
0.0371332
0.0319486
0.0268892
0.022299
0.0184218
0.0153897
0.0131838
0.0115654
0.0101506
0.00864438
0.00693217
0.00503225
0.0030554
0.0011294
-0.000699566
-0.00245507
-0.00421534
-0.00607187
-0.00804334
-0.0100843
-0.012101
-0.0139648
-0.0155627
-0.0168594
-0.0178984
-0.0187953
-0.0197216
-0.0208466
-0.0222866
-0.0240974
-0.0262632
-0.0286799
-0.0311518
-0.0334062
-0.0351132
-0.0359439
-0.0356953
-0.0343886
-0.0322133
-0.0293721
-0.026034
-0.0223829
-0.0186001
-0.0147854
-0.0109793
-0.00718907
-0.00339731
0.00042673
0.00432454
0.00833546
0.0124814
0.0167508
0.0210872
0.0253748
0.029427
0.0329901
0.0357726
0.0374836
0.0378861
0.0368583
0.0344536
0.030941
0.0267697
0.0223759
0.018029
0.013891
0.0100556
0.00655729
0.00338994
0.000523158
-0.00209006
-0.00447481
-0.00655409
-0.00815563
-0.00905521
-0.00902253
-0.00787778
-0.0055583
-0.00217042
0.00197931
0.00646347
0.0109457
0.0151399
0.0187778
0.0216334
0.0235547
0.0245094
0.0246163
0.0241619
0.0235585
0.0231849
0.0232539
0.0238437
0.02492
0.0263843
0.0281799
0.0302684
0.0326122
0.0351873
0.0379673
0.0409009
0.0438927
0.046791
0.04939
0.0514571
0.0527672
0.0531223
0.0523806
0.050465
0.0473414
0.0430767
0.0378839
0.0320639
0.0258153
0.0191766
0.0121126
0.00458163
-0.00338727
-0.0116386
-0.019886
-0.0277741
-0.0350304
-0.0415337
-0.0472882
-0.0523446
-0.0566411
-0.0600621
-0.0624945
-0.0638383
-0.0640311
-0.063103
-0.0612025
-0.0585209
-0.0551773
-0.0512917
-0.0470447
-0.0426894
-0.0385011
-0.0346515
-0.0312215
-0.0282166
-0.0255633
-0.0231458
-0.0208851
-0.0187201
-0.0165911
-0.0144431
-0.0122433
-0.00999491
-0.00772865
-0.00549532
-0.00335906
-0.00138708
0.000363556
0.0018639
0.00312459
0.00420617
0.00522307
0.00633887
0.0077311
0.00952513
0.0117813
0.0144851
0.0175333
0.0207531
0.0239686
0.0270292
0.0297962
0.0321444
0.0339674
0.0351709
0.0356648
0.0353981
0.0343946
0.0327735
0.030743
0.0285097
0.0261552
0.0236749
0.0210182
0.018107
0.0148658
0.0112486
0.00725879
0.00295885
-0.00153862
-0.00613116
-0.0107721
-0.0154543
-0.0201936
-0.0250195
-0.0299571
-0.0350243
-0.0402277
-0.0455692
-0.0510327
-0.0565693
-0.0620846
-0.0674344
-0.0724242
-0.0768214
-0.0803698
-0.0828106
-0.0839264
-0.083595
-0.0818175
-0.0786898
-0.074381
-0.0691804
-0.0634217
-0.0572536
-0.0507133
-0.0438014
-0.0365121
-0.0288446
-0.020787
-0.0123606
-0.00366429
0.0051038
0.0136483
0.021618
0.0286286
0.0342931
0.0382613
0.040248
0.0400834
0.0378211
0.033814
0.0287039
0.0231761
0.0176115
0.0121873
0.00696735
0.00195295
-0.00282792
-0.00732143
-0.0114524
-0.0151249
-0.0182249
-0.0206227
-0.0222049
-0.0229053
-0.0227057
-0.0216213
-0.019742
-0.0172011
-0.0140488
-0.0103149
-0.0060681
-0.00141909
0.0035213
0.00864317
0.0137985
0.0187789
0.0233102
0.0270582
0.0296468
0.0307144
0.0299914
0.0273956
0.0231332
0.0176422
0.0113497
0.00460082
-0.00226202
-0.00890725
-0.0150724
-0.0205469
-0.0251621
-0.0287869
-0.0313211
-0.032727
-0.0330182
-0.0321789
-0.0302021
-0.0271493
-0.0231244
-0.0182201
-0.0125916
-0.00651109
-0.000321009
0.00572527
0.0115131
0.0169518
0.0218305
0.0258552
0.0287142
0.0301451
0.0300429
0.0285273
0.0259637
0.0228297
0.0193972
0.0158099
0.0121636
0.00851923
0.00491562
0.0013744
-0.00208639
-0.00544466
-0.00867013
-0.0117218
-0.0145456
-0.0170847
-0.0192987
-0.0211791
-0.0227615
-0.0241084
-0.0252584
-0.0262459
-0.0271192
-0.0279379
-0.0287518
-0.0295698
-0.0303665
-0.0310901
-0.0316671
-0.0320135
-0.032051
-0.0317233
-0.0310103
-0.0299412
-0.0285952
-0.0270643
-0.0253995
-0.0236336
-0.0218004
-0.0199428
-0.0181152
-0.0163799
-0.0148008
-0.0134412
-0.0123584
-0.0115946
-0.0111765
-0.0111282
-0.011445
-0.0120706
-0.0128841
-0.0137213
-0.0144337
-0.0148798
-0.0149198
-0.0144286
-0.0132984
-0.0114353
-0.00879714
-0.00543781
-0.00153142
0.00261968
0.00666774
0.0104033
0.0137326
0.0166453
0.0191864
0.021377
0.0232205
0.0247287
0.0259387
0.0269224
0.0277895
0.0286586
0.0295924
0.0306036
0.0316624
0.0326905
0.0335566
0.0340656
0.0339546
0.0329258
0.0306946
0.0270473
0.021903
0.0153693
0.00774152
-0.000616285
-0.00936814
-0.018146
-0.0265549
-0.0342666
-0.0410394
-0.046718
-0.0512258
-0.0545216
-0.0566309
-0.0576894
-0.0578987
-0.0573718
-0.0561556
-0.0543032
-0.051882
-0.0489294
-0.045482
-0.0416248
-0.0375106
-0.0333425
-0.0292807
-0.0253695
-0.0215543
-0.0177031
-0.0136275
-0.00914897
-0.00415628
0.00137933
0.00739198
0.0137247
0.0201813
0.026543
0.0325634
0.0379897
0.0426193
0.0463311
0.049108
0.05105
0.0523244
0.0530199
0.0531565
0.0527404
0.0517885
0.0503263
0.0483286
0.0456871
0.0422698
0.037979
0.0327781
0.0266953
0.0198798
0.0126403
0.00544113
-0.00122025
-0.00707483
-0.0120524
-0.0161959
-0.0195192
-0.021971
-0.0235057
-0.0241334
-0.0239364
-0.0230481
-0.021675
-0.020093
-0.0185532
-0.0172014
-0.0161061
-0.0152732
-0.0146463
-0.0141147
-0.0135469
-0.0128351
-0.0118958
-0.010671
-0.0091396
-0.00732507
-0.00530034
-0.00317388
-0.00104873
0.000996942
0.00290445
0.00463717
0.00618591
0.00757478
0.00886302
0.0101377
0.011489
0.0129977
0.0147314
0.0167366
0.0190281
0.0215816
0.0243414
0.0272496
0.0302321
0.0331891
0.0359957
0.0385125
0.0406135
0.0422232
0.0433307
0.044
0.0443741
0.0446327
0.0448892
0.0451785
0.0454736
0.045688
0.0456812
0.0452695
0.0442471
0.0424121
0.0395995
0.0356957
0.0306191
0.0243472
0.0169836
0.00879567
0.000164487
-0.00859314
-0.0172214
-0.0254814
-0.033149
-0.0400378
-0.0460105
-0.0509929
-0.0549542
-0.0578388
-0.0595916
-0.0601985
-0.0596451
-0.0578466
-0.0547395
-0.0503444
-0.0447672
-0.0382496
-0.0312092
-0.0241384
-0.0173478
-0.0110104
-0.00520952
4.64528e-05
0.0047602
0.00890886
0.0124739
0.015468
0.0179197
0.0198239
0.0211818
0.0220388
0.0224902
0.022633
0.0224915
0.0220581
0.0213303
0.0203281
0.0191056
0.0177375
0.0162715
0.014731
0.0131328
0.0114945
0.00984127
0.00821219
0.00665962
0.00524355
0.00402438
0.00304922
0.00233595
0.00185091
0.00149552
0.00110603
0.000466278
-0.000641979
-0.00234405
-0.00465589
-0.00747116
-0.0105517
-0.0135607
-0.0161791
-0.018207
-0.0195649
-0.0202956
-0.0205629
-0.0205768
-0.0204901
-0.0204249
-0.0204949
-0.0208027
-0.0214438
-0.0225133
-0.0240911
-0.026213
-0.0288467
-0.0318684
-0.0350642
-0.0381647
-0.0408645
-0.0428272
-0.0437163
-0.0432539
-0.0413129
-0.0379956
-0.0336545
-0.0287967
-0.0238234
-0.0190166
-0.014592
-0.0106988
-0.00740049
-0.0046589
-0.00233432
-0.00019797
0.0019931
0.00433786
0.00677469
0.00911763
0.011095
0.012438
0.0129924
0.0127483
0.0118572
0.0106285
0.00942532
0.00851558
0.00808589
0.00824558
0.00900321
0.0102533
0.0117991
0.0134423
0.0150173
0.0163716
0.0173629
0.0178675
0.0177815
0.0170131
0.0155141
0.0133112
0.0105245
0.00733764
0.00389822
0.000326592
-0.0032472
-0.00667085
-0.00977056
-0.0123748
-0.0143635
-0.015682
-0.0163521
-0.0164666
-0.0161369
-0.0154766
-0.0145947
-0.0135339
-0.012279
-0.0107889
-0.00901894
-0.00694151
-0.00456343
-0.00193391
0.000878819
0.00382435
0.00684962
0.00988217
0.0128267
0.0155651
0.0179644
0.0198905
0.0212314
0.0219183
0.0219452
0.0213666
0.0202472
0.0186258
0.0165502
0.014082
0.0112482
0.00804004
0.00444989
0.000499969
-0.0037465
-0.00820582
-0.0128117
-0.0174903
-0.0221443
-0.02665
-0.0308697
-0.034679
-0.0379968
-0.0407981
-0.0431242
-0.0450707
-0.0467254
-0.0481198
-0.0492554
-0.0501206
-0.0506784
-0.0508338
-0.0504625
-0.0494457
-0.0476971
-0.0451809
-0.0418862
-0.0377863
-0.032897
-0.0273281
-0.0213033
-0.0151171
-0.0089978
-0.00310541
0.00243734
0.00752832
0.0120592
0.0159037
0.0189472
0.0211143
0.0223656
0.0226512
0.0219519
0.0203382
0.0180019
0.0151989
0.0120864
0.00877866
0.00539821
0.0020854
-0.00101478
-0.00379684
-0.00619462
-0.00818406
-0.00979131
-0.0110837
-0.0121225
-0.0129298
-0.0135161
-0.0139028
-0.0141322
-0.0142624
-0.014336
-0.0143723
-0.0143811
-0.014371
-0.0143517
-0.0143365
-0.0143412
-0.0143828
-0.0144757
-0.0146281
-0.0148368
-0.0150829
-0.0153289
-0.0155183
-0.0155784
-0.0154277
-0.0149875
-0.0141975
-0.013035
-0.0115341
-0.00980176
-0.0080242
-0.00645737
-0.00536752
-0.00490801
-0.00508906
-0.00578524
-0.00677731
-0.00787421
-0.00895997
-0.00996766
-0.0108691
-0.0116732
-0.012417
-0.0131446
-0.0138959
-0.0147036
-0.0155884
-0.016554
-0.0175832
-0.0186415
-0.0196897
-0.0206854
-0.0215835
-0.0223398
-0.0229158
-0.0232825
-0.0234128
-0.0232559
-0.0227497
-0.0218475
-0.0205422
-0.0188871
-0.0170126
-0.01513
-0.0134991
-0.0123456
-0.0118333
-0.012046
-0.0129602
-0.0144232
-0.0161737
-0.017931
-0.0194337
-0.0204274
-0.0206764
-0.0199926
-0.0182656
-0.015483
-0.011782
-0.00748236
-0.00308729
0.000829188
0.0038815
0.00591957
0.00699868
0.00733672
0.00716071
0.00659239
0.00569861
0.00453061
0.00313669
0.00157455
-0.000103819
-0.00189294
-0.00381017
-0.00587047
-0.00807544
-0.0104166
-0.012899
-0.0155233
-0.0182688
-0.0210826
-0.0238721
-0.0265006
-0.0287881
-0.0305206
-0.0314758
-0.0314552
-0.030318
-0.0279964
-0.024522
-0.0200728
-0.0149679
-0.00954156
-0.00404604
0.00129916
0.00627814
0.0106871
0.0143516
0.0171542
0.0190624
0.0201556
0.0206363
0.0207602
0.0206644
0.0204151
0.0200559
0.0196235
0.0191613
0.0187235
0.0183625
0.0181055
0.01796
0.0179171
0.0179503
0.0180263
0.0181288
0.0182502
0.0183832
0.018518
0.0186411
0.0187402
0.0188044
0.018822
0.0187786
0.018654
0.0184155
0.018023
0.0174345
0.0166111
0.0155123
0.0140788
0.0122542
0.0100075
0.0073452
0.00429876
0.000901443
-0.00278015
-0.00662058
-0.0104342
-0.0140009
-0.0170972
-0.0195058
-0.0210385
-0.0215621
-0.0210163
-0.0194551
-0.0170817
-0.0142171
-0.0111602
-0.00813878
-0.00534541
-0.00294545
-0.00105601
0.000288617
0.00115742
0.00173064
0.00229707
0.00320639
0.00475419
0.00711455
0.010328
0.0142834
0.0187289
0.0233586
0.0278861
0.0320254
0.0354937
0.0380527
0.0395709
0.0400449
0.0395797
0.0383026
0.0363482
0.0339048
0.0312288
0.0285729
0.0260226
0.0235324
0.0209737
0.01818
0.0150329
0.0114902
0.00759305
0.00345394
-0.000799213
-0.00502153
-0.00904093
-0.0126673
-0.0157155
-0.0180331
-0.0195291
-0.0202
-0.0201248
-0.0194022
-0.018143
-0.016511
-0.0147305
-0.0130306
-0.011562
-0.0104124
-0.00961714
-0.00915558
-0.00895828
-0.00894471
-0.0090743
-0.00932711
-0.00968482
-0.0101208
-0.0105909
-0.0110282
-0.0113501
-0.011483
-0.0113685
-0.010967
-0.0102667
-0.00929108
-0.00809587
-0.00673039
-0.00518515
-0.00341965
-0.00139155
0.000920808
0.00348893
0.0061983
0.00884142
0.0111369
0.0127962
0.0136154
0.0134969
0.0124678
0.010684
0.0083484
0.00559407
0.00253414
-0.000697217
-0.00395368
-0.00712043
-0.0101282
-0.0129321
-0.0154985
-0.0177791
-0.0196682
-0.0210221
-0.0216877
-0.0215291
-0.0204487
-0.018386
-0.0153611
-0.011457
-0.0067257
-0.00125687
0.00476092
0.0110262
0.0171902
0.0230266
0.0284021
0.0332463
0.0375302
0.0411932
0.0440999
0.046092
0.0470419
0.046902
0.0457466
0.0437958
0.04133
0.0384754
0.0352697
0.0317307
0.0278796
0.0237628
0.0194498
0.0149975
0.0104436
0.00582676
0.00119234
-0.00341551
-0.00795052
-0.0123646
-0.0166109
-0.020652
-0.024466
-0.0280527
-0.0314319
-0.0346181
-0.0375869
-0.0402935
-0.0426915
-0.0447461
-0.0464348
-0.0477351
-0.0486482
-0.0492201
-0.0495482
-0.0497484
-0.0498742
-0.0499349
-0.0499163
-0.0497856
-0.0494994
-0.049012
-0.0482851
-0.0472954
-0.0460414
-0.0445256
-0.0427138
-0.0405551
-0.0380063
-0.0350441
-0.0316717
-0.0278966
-0.0237213
-0.0191619
-0.0142493
-0.00902836
-0.00358706
0.00192753
0.00731666
0.0123816
0.016967
0.0209589
0.0242708
0.0268061
0.028437
0.0290521
0.0285764
0.026979
0.0243324
0.0208581
0.0168801
0.0126686
0.00844456
0.00442344
0.000816223
-0.00220015
-0.00452832
-0.00616851
-0.00723256
-0.00794891
-0.00860223
-0.00938457
-0.0103814
-0.0116011
-0.012986
-0.0144468
-0.0159244
-0.0173887
-0.0188344
-0.0202843
-0.0217872
-0.0234143
-0.0252502
-0.0273738
-0.0298364
-0.0326388
-0.0357106
-0.0388947
-0.041943
-0.044529
-0.0463047
-0.0470076
-0.0465121
-0.0448563
-0.0422394
-0.038927
-0.0351744
-0.0312517
-0.0274006
-0.0237401
-0.0202887
-0.0169813
-0.0136885
-0.0102539
-0.00652283
-0.00235352
0.00235937
0.00767105
0.0135764
0.0199867
0.0267065
0.0334359
0.039831
0.0456505
0.050778
0.0552073
0.0589884
0.062104
0.0644805
0.0660448
0.0667536
0.0666054
0.0656512
0.0640306
0.0619323
0.059472
0.0567386
0.0538393
0.0509035
0.0480676
0.0453976
0.0427957
0.0400357
0.0368489
0.0330568
0.0286132
0.0236071
0.0182564
0.0128259
0.00751113
0.00246817
-0.00214543
-0.00613133
-0.00926961
-0.0113656
-0.012285
-0.0119819
-0.0105556
-0.00829285
-0.00564222
-0.00306531
-0.000907386
0.000574652
0.00120958
0.00093561
-0.000190402
-0.00201939
-0.00430585
-0.00668672
-0.00870256
-0.009911
-0.0100411
-0.00900327
-0.00689088
-0.00395668
-0.000475674
0.00335733
0.00738068
0.0114363
0.0153965
0.0192212
0.0229428
0.0266393
0.0304114
0.0343317
0.0384083
0.0425838
0.0467508
0.0507921
0.0546185
0.0581671
0.0614022
0.0643106
0.0668668
0.0689836
0.0705403
0.0714103
0.0714735
0.0706068
0.0686923
0.0656724
0.0615942
0.0565816
0.0507233
0.044145
0.0370689
0.029813
0.0227012
0.0159317
0.00961127
0.00380478
-0.00140993
-0.00595013
-0.00976139
-0.0128285
-0.015148
-0.016685
-0.0174292
-0.0174412
-0.016849
-0.0157771
-0.014337
-0.0126718
-0.0109705
-0.00943217
-0.00820777
-0.0074041
-0.00708133
-0.00724572
-0.00785479
-0.00880456
-0.00992095
-0.0110038
-0.0119297
-0.0126368
-0.0131089
-0.0133736
-0.01349
-0.0135077
-0.0134149
-0.0131517
-0.0126273
-0.0117388
-0.0103973
-0.00854669
-0.00617587
-0.00330355
5.0263e-05
0.00382883
0.00791477
0.0121453
0.0163789
0.0205187
0.0244959
0.0282614
0.0317766
0.0349922
0.0378638
0.0403685
0.0425188
0.0443708
0.0460205
0.0475559
0.0489931
0.0502964
0.0513995
0.0522158
0.0526541
0.052632
0.052093
0.0510264
0.0494809
0.0475348
0.0452066
0.0424676
0.0392861
0.0356572
0.0316262
0.0272925
0.0227835
0.0182651
0.0139536
0.010102
0.00695061
0.00467544
0.00335788
0.0029577
0.00330485
0.00417327
0.00538979
0.00679017
0.00818804
0.00940484
0.0103361
0.0109463
0.011259
0.011352
0.0113219
0.0112391
0.0111591
0.0111338
0.0112107
0.0114337
0.0118393
0.0124531
0.0132821
0.0143065
0.0154718
0.0166849
0.0178244
0.0187743
0.0194423
0.0197617
0.0197003
0.0192706
0.0185341
0.017581
0.0164651
0.0151844
0.0137049
0.0119791
0.00996046
0.00761393
0.00491452
0.00186296
-0.00149453
-0.00505707
-0.00869314
-0.0122609
-0.0156013
-0.0185427
-0.0209259
-0.0226457
-0.0236834
-0.0241184
-0.0240995
-0.0237435
-0.0231075
-0.0222311
-0.0211644
-0.0199816
-0.0187903
-0.0177166
-0.0168643
-0.0163043
-0.0160724
-0.0161582
-0.0164961
-0.0169722
-0.0174662
-0.017885
-0.0181504
-0.0181909
-0.0179451
-0.0173548
-0.016352
-0.0148786
-0.0129109
-0.0104756
-0.00764975
-0.00451656
-0.00113564
0.00242439
0.00606395
0.00965324
0.0130575
0.0161487
0.0188054
0.0209198
0.022402
0.0231698
0.0231759
0.0224404
0.0210668
0.0191878
0.0168247
0.0139435
0.0105168
0.00655505
0.00213157
-0.00262986
-0.00758424
-0.0125383
-0.0172405
-0.0214193
-0.0248707
-0.0274861
-0.0292561
-0.030234
-0.0304243
-0.0298073
-0.0284027
-0.0263045
-0.0236705
-0.0206486
-0.0173882
-0.0140538
-0.0107777
-0.00764598
-0.00471646
-0.00202864
0.000384217
0.00246891
0.00416027
0.00539919
0.00614759
0.00638345
0.00606762
0.00516649
0.00368701
0.0016952
-0.000721295
-0.00355633
-0.00683788
-0.0105769
-0.014742
-0.0192465
-0.023948
-0.0286275
-0.0329869
-0.0366825
-0.0394129
-0.0410038
-0.0414298
-0.0408157
-0.039352
-0.0371711
-0.0344059
-0.0312209
-0.0277566
-0.0240939
-0.020289
-0.0163988
-0.0124731
-0.00854184
-0.00462932
-0.000768139
0.00300202
0.00663606
0.0100886
0.0133162
0.0162836
0.0189532
0.0212539
0.0230809
0.0243323
0.024939
0.0248837
0.0241952
0.0229673
0.021389
0.0197421
0.0183317
0.0174247
0.017249
0.0179781
0.0197095
0.0224557
0.0261098
0.0304203
0.0350457
0.0397225
0.0442705
0.0485554
0.0524815
0.0559919
0.0590636
0.061709
0.0639845
0.0659943
0.0678604
0.069645
0.0713232
0.072808
0.0739709
0.074662
0.074735
0.074071
0.0726053
0.0703594
0.067462
0.0640925
0.0603385
0.0562427
0.0518548
0.047246
0.0425153
0.0377676
0.0331307
0.0287614
0.0248347
0.0215119
0.0189058
0.017061
0.0159455
0.0154901
0.0156486
0.0163505
0.0174661
0.0188251
0.0202981
0.0218198
0.0233558
0.0248826
0.026376
0.0278009
0.0291044
0.0302142
0.0310415
0.0314864
0.0314343
0.0307347
0.0292176
0.0267469
0.0232729
0.018876
0.0137778
0.00828703
0.00280157
-0.00224581
-0.00656065
-0.0100592
-0.0127888
-0.0147819
-0.0160171
-0.0164766
-0.0161683
-0.0151062
-0.0133257
-0.0109296
-0.00809123
-0.00499444
-0.00182072
0.00122203
0.00390623
0.0060385
0.00751208
0.00831983
0.00856376
0.00845558
0.00823663
0.00800176
0.00773357
0.00734776
0.00672889
0.00577993
0.00443709
0.00268529
0.000573579
-0.00180207
-0.00436115
-0.0070596
-0.00986681
-0.0127553
-0.0157006
-0.0186894
-0.0217117
-0.0247548
-0.0277982
-0.0308115
-0.0337529
-0.036572
-0.0392147
-0.0416313
-0.0437863
-0.0456708
-0.0473118
-0.0487774
-0.0501731
-0.0516063
-0.0531103
-0.0546314
-0.0560401
-0.0571393
-0.0576849
-0.0574209
-0.0561168
-0.0536104
-0.0498422
-0.0448815
-0.0389727
-0.0325313
-0.0260044
-0.0196696
-0.0136775
-0.00808408
-0.00285235
0.0021262
0.00696763
0.0117458
0.0165011
0.0212472
0.0259696
0.03063
0.0351699
0.0395198
0.0436062
0.0473585
0.0506946
0.0535042
0.0556779
0.057139
0.0578553
0.0578305
0.0571158
0.0558374
0.0541727
0.0522478
0.0501067
0.0477513
0.0451635
0.0423125
0.0391656
0.0357098
0.0319712
0.028015
0.0239156
0.0197308
0.015521
0.0113586
0.00733054
0.00353315
6.7711e-05
-0.002972
-0.00551608
-0.00753452
-0.00903357
-0.0100466
-0.01066
-0.0110311
-0.011362
-0.0118199
-0.0125008
-0.0134389
-0.014605
-0.0159027
-0.0171713
-0.0182172
-0.0188769
-0.0190281
-0.0186033
-0.0176119
-0.0161494
-0.014378
-0.0124623
-0.0105107
-0.00859779
-0.00677927
-0.00509708
-0.00358725
-0.00227512
-0.00116916
-0.000255115
0.000508707
0.00119037
0.00186547
0.00259002
0.00340604
0.00434491
0.00542418
0.006646
0.00799839
0.00944962
0.0109421
0.0123906
0.0136893
0.0147312
0.015424
0.0157022
0.0155409
0.0149693
0.0140585
0.0128786
0.0115204
0.0101127
0.00881688
0.0077961
0.00713591
0.00681129
0.00670019
0.00663271
0.00648565
0.00617657
0.00565729
0.0049248
0.00402691
0.00306102
0.00215499
0.00145476
0.0011146
0.0012792
0.00205705
0.00349056
0.00552629
0.00799503
0.0106238
0.0131193
0.0152409
0.016793
0.0176294
0.0176664
0.016882
0.0153412
0.0132169
0.0107549
0.00815062
0.00550703
0.00287323
0.000267943
-0.00230492
-0.00483344
-0.00729252
-0.00964061
-0.0118203
-0.0137632
-0.0154006
-0.0166784
-0.0175758
-0.0181189
-0.0183834
-0.0184537
-0.018366
-0.0181333
-0.0177697
-0.0172994
-0.0167665
-0.0162376
-0.0157967
-0.0155238
-0.0154733
-0.0156678
-0.0160908
-0.0166795
-0.0173375
-0.0179731
-0.0185021
-0.0188416
-0.018914
-0.0186563
-0.0180298
-0.0170294
-0.0156689
-0.0139361
-0.0118095
-0.00930243
-0.00650271
-0.00359231
-0.000832275
0.00146637
0.00313634
0.00438625
0.00531488
0.00591191
0.00614871
0.00598691
0.00540721
0.00442522
0.00311113
0.00158774
-1.4561e-05
-0.00162757
-0.00322147
-0.00478598
-0.00631986
-0.00781541
-0.0092602
-0.0106403
-0.0119427
-0.0131599
-0.0142929
-0.0153558
-0.0163805
-0.0174196
-0.018545
-0.0198349
-0.0213463
-0.0231042
-0.0250958
-0.0272658
-0.0295173
-0.0317447
-0.0339034
-0.0360002
-0.038079
-0.0402099
-0.0424607
-0.044879
-0.0474809
-0.0502384
-0.0530675
-0.0558261
-0.0583274
-0.0603603
-0.0617007
-0.062133
-0.0614649
-0.059521
-0.0561782
-0.0514361
-0.0454657
-0.0385879
-0.0311257
-0.0233461
-0.0154413
-0.00746751
0.000610054
0.00886099
0.0173252
0.0259087
0.0343806
0.0423858
0.0494794
0.0552201
0.0593535
0.0619085
0.0631739
0.0635177
0.063144
0.0621855
0.0607799
0.0590743
0.0571764
0.0550793
0.0527053
0.0499534
0.0467393
0.0430339
0.0388812
0.0343984
0.029721
0.024926
0.020055
0.0151351
0.0101832
0.00521308
0.000239766
-0.00471256
-0.00960807
-0.014394
-0.0190002
-0.0233368
-0.0273015
-0.0307936
-0.0337333
-0.0360635
-0.0377358
-0.038747
-0.039171
-0.0391609
-0.0388882
-0.038452
-0.0379118
-0.0373142
-0.036696
-0.0360774
-0.0354483
-0.0347769
-0.0340164
-0.0331115
-0.0320032
-0.0306362
-0.02897
-0.0269907
-0.0247109
-0.0221558
-0.0193731
-0.0164492
-0.0135121
-0.0107103
-0.00815496
-0.00591018
-0.00399476
-0.00238161
-0.00101971
0.000106933
0.000984041
0.00159074
0.00191638
0.00197282
0.00180057
0.00145148
0.000962017
0.000368875
-0.000279581
-0.000933505
-0.00156757
-0.00218265
-0.00279715
-0.00344296
-0.00415874
-0.00498255
-0.00593997
-0.00703067
-0.00820107
-0.00930731
-0.0101261
-0.0103852
-0.00982298
-0.00830314
-0.00587535
-0.00277801
0.000661629
0.004247
0.00786223
0.011416
0.0148172
0.0179264
0.0205622
0.0225268
0.0236464
0.02383
0.0231246
0.0217346
0.0199776
0.0181481
0.0165114
0.0153262
0.0148216
0.0151369
0.0162643
0.0180386
0.020145
0.0222102
0.0240131
0.02551
0.0267944
0.0280596
0.0295079
0.0312727
0.0334105
0.0358908
0.0385839
0.0412837
0.0437846
0.0459197
0.0475617
0.0486319
0.0490996
0.0489405
0.048113
0.0466036
0.0444646
0.041834
0.0389289
0.0359663
0.0330505
0.0302027
0.0273869
0.0245237
0.0215159
0.0182753
0.0147366
0.010876
0.00672823
0.00239938
-0.00193157
-0.00604416
-0.00974963
-0.0128991
-0.0153961
-0.0172176
-0.0184148
-0.0190667
-0.0192487
-0.019066
-0.0186738
-0.018242
-0.0178715
-0.0176118
-0.0174798
-0.0174627
-0.0175267
-0.0176355
-0.0177754
-0.0179484
-0.0181643
-0.0184345
-0.0187627
-0.0191352
-0.0195082
-0.0197987
-0.0198839
-0.0196088
-0.0188032
-0.0173105
-0.0150252
-0.0119228
-0.00808167
-0.00365077
0.00126637
0.00659359
0.0122304
0.0180287
0.0238041
0.02939
0.0346361
0.0393891
0.0434746
0.0466966
0.0488788
0.0499092
0.0497676
0.0485149
0.0462855
0.0433145
0.0398645
0.0361037
0.0321594
0.0281598
0.0242196
0.0203937
0.0166792
0.0130406
0.00943163
0.00584118
0.00232486
-0.00100156
-0.00397516
-0.00639843
-0.00805725
-0.00875039
-0.0083414
-0.00680761
-0.0042768
-0.000999059
0.00278953
0.00690567
0.0111636
0.015353
0.0192505
0.0226787
0.0255864
0.0280413
0.0302128
0.0323213
0.0345119
0.0367997
0.0390876
0.0411792
0.0427967
0.0436225
0.0433803
0.0419346
0.039322
0.0357347
0.0313963
0.02647
0.0211248
0.0155628
0.00997929
0.00455696
-0.00051261
-0.00501204
-0.00868823
-0.0112789
-0.0125642
-0.0124239
-0.0108967
-0.00821922
-0.00477623
-0.000893953
0.00322096
0.00740559
0.0115021
0.0153452
0.0187569
0.0215527
0.0235596
0.0246448
0.0247502
0.023924
0.0223144
0.0200923
0.0174309
0.0145173
0.0114879
0.00841145
0.00531826
0.0022199
-0.000883585
-0.00400019
-0.00714788
-0.0103462
-0.0136109
-0.0169465
-0.0203397
-0.0237493
-0.0271098
-0.0303359
-0.0333338
-0.0360221
-0.0383679
-0.0403967
-0.0421925
-0.0438699
-0.0454989
-0.0470444
-0.0483889
-0.0493548
-0.0497381
-0.0493607
-0.0481019
-0.0459146
-0.0428202
-0.0389431
-0.0345419
-0.0299631
-0.0254843
-0.0212621
-0.0173969
-0.0139668
-0.0110177
-0.0085671
-0.00663171
-0.00522057
-0.00433026
-0.00397884
-0.00422595
-0.00514036
-0.00678875
-0.00922018
-0.0124169
-0.0162581
-0.0205209
-0.0249695
-0.0294869
-0.0340302
-0.0385901
-0.0431666
-0.047727
-0.0521742
-0.0563537
-0.0600702
-0.0631263
-0.0653728
-0.0667275
-0.0671601
-0.0666264
-0.0651074
-0.0626706
-0.0595021
-0.0558505
-0.0518696
-0.047673
-0.0433884
-0.0391695
-0.0352011
-0.0316728
-0.0287255
-0.0264363
-0.0248039
-0.0237327
-0.0230575
-0.0226358
-0.0223762
-0.0222035
-0.0220438
-0.0218281
-0.0215169
-0.0210996
-0.0205882
-0.0200143
-0.0194259
-0.0188798
-0.0184218
-0.0180624
-0.0177757
-0.0174993
-0.017135
-0.0165543
-0.0156112
-0.0141611
-0.0120875
-0.00933218
-0.00593014
-0.00203421
0.00207599
0.00605612
0.0096506
0.0127052
0.0151217
0.0168454
0.0178794
0.0182696
0.018017
0.0170214
0.0151426
0.0122615
0.00832954
0.0034128
-0.00232035
-0.00868602
-0.0154359
-0.0222526
-0.0288549
-0.0350836
-0.0408706
-0.0462007
-0.0510429
-0.055305
-0.0588738
-0.0616549
-0.0635958
-0.0646892
-0.0649856
-0.0646363
-0.0639136
-0.0631369
-0.0624957
-0.0620766
-0.061893
-0.0618824
-0.0619215
-0.061863
-0.0615735
-0.0609344
-0.0598518
-0.0582628
-0.0561299
-0.0534527
-0.0502974
-0.046809
-0.0431977
-0.0396605
-0.0363211
-0.0332501
-0.0304892
-0.0280836
-0.0261041
-0.024622
-0.0236865
-0.0233053
-0.0234362
-0.0240162
-0.0250076
-0.0263588
-0.0279743
-0.0297163
-0.0314494
-0.0330777
-0.0345277
-0.0357373
-0.0366462
-0.0371718
-0.0372332
-0.0367759
-0.0357975
-0.0343668
-0.0326343
-0.0307858
-0.0289334
-0.0271376
-0.0254322
-0.023823
-0.0222943
-0.0208171
-0.0193699
-0.0179401
-0.0165227
-0.0151173
-0.0137287
-0.0123623
-0.0110232
-0.00971453
-0.0084417
-0.00721306
-0.00603623
-0.00491275
-0.0038376
-0.0027952
-0.00176252
-0.000713453
0.000374248
0.00151817
0.00272674
0.00399593
0.00530393
0.00661032
0.00785454
0.00895992
0.00984001
0.0104115
0.0106094
0.0104065
0.00983144
0.00898506
0.00804205
0.00721278
0.00665248
0.00646514
0.00670396
0.00735862
0.00834849
0.00954537
0.0108436
0.012185
0.0135367
0.0148798
0.016201
0.017486
0.0187108
0.0198364
0.0207975
0.0214859
0.0217457
0.0213996
0.0202842
0.0182893
0.0154032
0.0117495
0.0076045
0.00332567
-0.000829916
-0.00467375
-0.00805726
-0.0108807
-0.0130984
-0.0147037
-0.015676
-0.015998
-0.0156893
-0.0148224
-0.0134822
-0.011657
-0.00929339
-0.00635411
-0.00285673
0.00109735
0.00530827
0.00954053
0.0136546
0.0175182
0.0209895
0.0239395
0.0262549
0.0278495
0.0286973
0.0288665
0.0285348
0.0279639
0.027381
0.0268867
0.0264847
0.0261055
0.0256187
0.0248625
0.023704
0.0220923
0.0200711
0.0177836
0.0154554
0.0133093
0.0114507
0.00987811
0.00849945
0.00715653
0.00570473
0.00407891
0.00228919
0.000417536
-0.00138397
-0.00292286
-0.00403393
-0.00462238
-0.00467446
-0.00426815
-0.00354358
-0.00261227
-0.00155983
-0.000474369
0.000545674
0.00139287
0.00196428
0.00217542
0.00196748
0.00130496
0.000159676
-0.00147023
-0.00352943
-0.00588789
-0.00833607
-0.0106358
-0.0126343
-0.0142548
-0.0154831
-0.0163711
-0.0170065
-0.0174437
-0.0177016
-0.0177831
-0.0176825
-0.0173804
-0.0168204
-0.0159126
-0.0145642
-0.0127091
-0.0103379
-0.00752119
-0.00442384
-0.00128106
0.00169601
0.00438877
0.00672193
0.00864776
0.0101637
0.0113221
0.0122159
0.0129196
0.0134456
0.0137705
0.0138581
0.0136764
0.0132158
0.0125049
0.0116098
0.0106078
0.00958056
0.00862747
0.00786706
0.00742881
0.00743695
0.00798874
0.00912771
0.0108157
0.0129106
0.0151605
0.0172467
0.0189063
0.0199924
0.020472
0.0204293
0.0200559
0.019573
0.0191243
0.0187937
0.0186201
0.0185945
0.0186651
0.0187556
0.0187836
0.0186638
0.0183168
0.0176811
0.0167266
0.015465
0.0139476
0.0122382
0.0104082
0.00855015
0.00678301
0.00524624
0.00408034
0.00338432
0.00317821
0.00339842
0.0039217
0.00463822
0.00547383
0.00636231
0.00723012
0.00799037
0.00854142
0.008772
0.00857433
0.00785982
0.00657897
0.00474039
0.00242371
-0.000256174
-0.00324519
-0.0065113
-0.0100055
-0.013647
-0.0173242
-0.0209218
-0.0243192
-0.0273857
-0.0299876
-0.0320034
-0.0333372
-0.0339287
-0.0337826
-0.0329898
-0.0316887
-0.0299468
-0.0277734
-0.0251729
-0.022174
-0.0188496
-0.0153062
-0.0116298
-0.00786999
-0.0040673
-0.000263583
0.00349208
0.00714888
0.0106654
0.0140139
0.0171816
0.0201758
0.0230128
0.0256915
0.0281973
0.0305181
0.0326527
0.034613
0.0364107
0.0380502
0.0395402
0.0409065
0.0421929
0.0434576
0.0447456
0.0460532
0.0473352
0.0485145
0.0494935
0.0501789
0.0504998
0.0504214
0.0499572
0.0491761
0.0481805
0.0470374
0.0457551
0.044302
0.0426213
0.0406406
0.0382844
0.0354811
0.0321501
0.0281831
0.0234854
0.0180151
0.0117924
0.00487648
-0.00259005
-0.0103538
-0.0180743
-0.0254349
-0.0322333
-0.0383692
-0.0438149
-0.0485677
-0.0526427
-0.0561069
-0.0590912
-0.0617433
-0.0641115
-0.0661768
-0.0678855
-0.0691378
-0.0697529
-0.0695166
-0.0682404
-0.0658148
-0.0622609
-0.0577636
-0.0526313
-0.0471306
-0.0414323
-0.0356598
-0.029911
-0.0242682
-0.0188064
-0.0135878
-0.00865103
-0.00400631
0.000362504
0.00449627
0.00842294
0.0120835
0.0153573
0.0180998
0.0201712
0.0214761
0.0220085
0.0218604
0.0211334
0.019877
0.0181394
0.0160031
0.013575
0.0109303
0.00810098
0.00510795
0.00198255
-0.0012221
-0.00442808
-0.00753166
-0.0104061
-0.0129148
-0.0149461
-0.016467
-0.0175403
-0.0183289
-0.0190722
-0.0199908
-0.0212071
-0.0227554
-0.0245887
-0.0265796
-0.0285654
-0.0304413
-0.0321525
-0.0336812
-0.0350468
-0.0362809
-0.0373754
-0.0382796
-0.0389163
-0.0391942
-0.0390257
-0.0383474
-0.0371466
-0.0354805
-0.0334856
-0.0313429
-0.0291735
-0.0269981
-0.024764
-0.0223597
-0.019633
-0.0164216
-0.0126057
-0.00813372
-0.00305183
0.0024795
0.00819656
0.0138366
0.0192742
0.0244902
0.0295253
0.0344161
0.0391085
0.0434783
0.0473531
0.0505386
0.052852
0.0541689
0.0544617
0.0538335
0.0524777
0.0505498
0.0482179
0.0456971
0.0431979
0.0408524
0.0387314
0.036859
0.0352102
0.0337219
0.0323223
0.0309545
0.0295656
0.0281002
0.0264994
0.0247021
0.02265
0.0202953
0.0176118
0.0146054
0.011318
0.00780381
0.0040958
0.000231945
-0.00371989
-0.00765034
-0.0114015
-0.014775
-0.0175542
-0.0195251
-0.0205055
-0.020375
-0.0190884
-0.016696
-0.0133865
-0.00947058
-0.00523842
-0.000849924
0.0036054
0.00806621
0.012482
0.0167984
0.0209432
0.0248152
0.028289
0.0312279
0.0335024
0.0350081
0.035662
0.0353915
0.0341916
0.0321702
0.0295535
0.0265975
0.0234575
0.0202357
0.0170209
0.0138945
0.0109329
0.00819344
0.0057075
0.0034761
0.00146655
-0.000379868
-0.00211453
-0.00377418
-0.00539559
-0.00702545
-0.00872226
-0.0105549
-0.0125916
-0.014878
-0.0174206
-0.0201776
-0.0230514
-0.0258907
-0.0285196
-0.0308075
-0.0326867
-0.0341535
-0.0352715
-0.0361437
-0.0368382
-0.0373874
-0.0378097
-0.0381171
-0.0383183
-0.03841
-0.0383646
-0.0381442
-0.0377158
-0.0370603
-0.0361813
-0.0350923
-0.0337819
-0.0322333
-0.0304451
-0.0284437
-0.0262941
-0.0241025
-0.0219997
-0.020097
-0.0184742
-0.0171755
-0.0161979
-0.0154817
-0.0149083
-0.0143305
-0.0136439
-0.0127802
-0.0117026
-0.0104114
-0.00894865
-0.00739394
-0.00583918
-0.00435168
-0.00297866
-0.00174906
-0.000670146
0.000274597
0.00112341
0.00191901
0.00267086
0.00336336
0.00396381
0.00442859
0.00471186
0.00477729
0.00461047
0.00423116
0.00370019
0.00311127
0.00255462
0.00210148
0.00180754
0.00171019
0.00182038
0.00211675
0.00254201
0.0030206
0.00349732
0.00393149
0.00429046
0.00455262
0.00470919
0.0047677
0.00475262
0.00470219
0.00465465
0.00464305
0.00469633
0.00483899
0.00508762
0.00544809
0.00591157
0.00645611
0.00705465
0.00768862
0.00834207
0.00899764
0.00963496
0.0102308
0.01076
0.0112
0.0115374
0.0117717
0.0119185
0.0120124
0.0121058
0.0122582
0.0125109
0.0128807
0.013358
0.0139039
0.0144489
0.0148975
0.0151446
0.0151077
0.0147436
0.0140608
0.013132
0.012099
0.0111556
0.010488
0.0102208
0.0104131
0.0110521
0.0120474
0.0132687
0.0146366
0.0161008
0.0176188
0.0191512
0.020659
0.0221044
0.0234616
0.0247245
0.0259036
0.027023
0.0281185
0.0292316
0.030399
0.0316246
0.0328492
0.0339543
0.0347735
0.035108
0.0347528
0.0335348
0.0313639
0.0282838
0.0244956
0.0203157
0.0160273
0.0118265
0.00786008
0.00424063
0.00105034
-0.00163879
-0.00374233
-0.00519327
-0.0059759
-0.00615171
-0.00587721
-0.00538436
-0.00488582
-0.00449825
-0.00427021
-0.00420072
-0.00424742
-0.00435091
-0.00446498
-0.00455502
-0.00459654
-0.0045781
-0.00450283
-0.00438909
-0.00426944
-0.00418798
-0.0041958
-0.00434454
-0.00467806
-0.00522286
-0.005978
-0.00690657
-0.00793138
-0.00894316
-0.00983268
-0.0105196
-0.0109526
-0.0111135
-0.0110228
-0.0107406
-0.0103422
-0.00986118
-0.00928578
-0.00857471
-0.0076666
-0.00649155
-0.00498374
-0.00308637
-0.000743975
0.00206573
0.00530001
0.00883053
0.0124359
0.0158384
0.0188018
0.0211543
0.0227909
0.0236876
0.0238806
0.0233912
0.0222473
0.0205271
0.0183782
0.0159786
0.0134316
0.0107991
0.00813463
0.00549128
0.00292309
0.000470801
-0.00185097
-0.00405191
-0.00616488
-0.00824444
-0.0103503
-0.012512
-0.0147324
-0.016992
-0.0192486
-0.0214394
-0.0234882
-0.0253204
-0.0268745
-0.0281113
-0.0290204
-0.0296173
-0.029913
-0.029894
-0.0295459
-0.0288733
-0.0279089
-0.0267082
-0.0253059
-0.0236868
-0.0218124
-0.0196441
-0.0171602
-0.0143669
-0.0112992
-0.00803631
-0.00470618
-0.00145794
0.0016126
0.00447232
0.00714194
0.00969044
0.0122102
0.0147549
0.0173131
0.0198175
0.0221541
0.0241745
0.0257273
0.0267103
0.0270987
0.0269573
0.0264269
0.0256446
0.0246836
0.0235859
0.0223866
0.0211224
0.0198371
0.0185747
0.0173682
0.0162454
0.0152321
0.0143516
0.0136261
0.0130841
0.0127627
0.0126912
0.0128751
0.0132833
0.0138413
0.0144476
0.01502
0.0154877
0.0157847
0.015856
0.0156639
0.0151937
0.0144488
0.0134512
0.0122543
0.0109498
0.00965862
0.00849002
0.00748524
0.00662281
0.00582502
0.00496596
0.00390132
0.00251071
0.000709292
-0.00153652
-0.00419029
-0.00713416
-0.010189
-0.0131853
-0.0159924
-0.0185065
-0.0206503
-0.0223764
-0.0236555
-0.0244284
-0.0245785
-0.023977
-0.0225312
-0.0202408
-0.0172573
-0.0138706
-0.0103865
-0.00696223
-0.00365114
-0.00045201
0.00265415
0.00567094
0.00859059
0.0113935
0.0140473
0.0165033
0.0186896
0.0205021
0.0218291
0.0225789
0.0227066
0.022236
0.0212519
0.0198306
0.0179899
0.0157367
0.0131049
0.0101781
0.00710283
0.00408281
0.00132793
-0.00102023
-0.00289144
-0.00429394
-0.00532807
-0.00618749
-0.00710977
-0.00826387
-0.00975643
-0.0116363
-0.0138817
-0.0163939
-0.0190122
-0.0215723
-0.0239559
-0.0260843
-0.0279161
-0.029451
-0.0307143
-0.0317126
-0.0324212
-0.0328067
-0.0328434
-0.0325259
-0.0318796
-0.0309748
-0.0299317
-0.0288866
-0.0279089
-0.0269925
-0.0260728
-0.0250359
-0.0237393
-0.0220494
-0.01986
-0.0171162
-0.0138424
-0.010163
-0.0063084
-0.00256586
0.000845116
0.00379205
0.0062173
0.00812364
0.00951925
0.0103818
0.0106984
0.0104992
0.00987678
0.00898802
0.00800536
0.00704413
0.00618548
0.00549336
0.00501341
0.00476985
0.0047594
0.00494655
0.00526608
0.00564683
0.0060453
0.00643424
0.00679314
0.0071057
0.0073584
0.00753945
0.00764122
0.00766153
0.00760684
0.00749423
0.00735037
0.00720156
0.00706623
0.00695771
0.00688647
0.0068588
0.00687591
0.00693222
0.00701581
0.0071107
0.00719841
0.00725705
0.00726397
0.00719833
0.00704607
0.00680499
0.00649091
0.00614193
0.00582172
0.00561808
0.00563838
0.00599751
0.0068009
0.00811847
0.00995417
0.0122226
0.014741
0.0172461
0.019488
0.0213532
0.0228501
0.0240865
0.0252244
0.026368
0.0275515
0.0287558
0.0299171
0.0309481
0.0317855
0.0324036
0.0328159
0.0330733
0.0332322
0.033311
0.0333043
0.0331955
0.0329625
0.032584
0.0320457
0.0313446
0.0304829
0.0294588
0.0282793
0.0269718
0.0255898
0.0242149
0.0229502
0.021893
0.0210748
0.0204373
0.0198436
0.0191204
0.0181395
0.0168392
0.0152247
0.0133776
0.0114562
0.00966891
0.00819633
0.00712297
0.00643918
0.00604582
0.00578915
0.00555213
0.00526367
0.00488503
0.00440903
0.00385872
0.00327579
0.00270333
0.00218576
0.00176696
0.0014842
0.00136184
0.0014049
0.00159538
0.00189647
0.00227387
0.00271178
0.00320388
0.00374583
0.00433081
0.00494533
0.00556612
0.00616112
0.00669596
0.00713414
0.00743928
0.00758071
0.00754003
0.00731481
0.00691323
0.00635269
0.00567225
0.00494074
0.00425004
0.00369183
0.00335143
0.00330487
0.00360799
0.0042852
0.00531998
0.0066731
0.00833416
0.010293
0.0125093
0.0148963
0.0173103
0.0195531
0.0214096
0.0227286
0.023432
0.0235225
0.0230958
0.0223066
0.0212659
0.0200065
0.0185215
0.0167879
0.0147797
0.0124751
0.00988008
0.00704636
0.004082
0.00113762
-0.00164947
-0.00420515
-0.00651373
-0.00861708
-0.0106133
-0.0126317
-0.0147653
-0.0170394
-0.0194171
-0.0218024
-0.0240469
-0.0259826
-0.0274923
-0.0285454
-0.029192
-0.0295201
-0.029554
-0.0292572
-0.0285685
-0.0274262
-0.0257909
-0.0236661
-0.0211051
-0.0181808
-0.0149657
-0.0115575
-0.00808282
-0.00465968
-0.00138485
0.00166041
0.00441077
0.00682472
0.00888541
0.0105931
0.0119755
0.0131003
0.0140639
0.0149423
0.0157507
0.016466
0.0170436
0.0174301
0.0175786
0.017466
0.0171121
0.0165889
0.0160213
0.0155712
0.0153806
0.0154965
0.0158698
0.0163596
0.01674
0.0167427
0.0161578
0.0149247
0.0131398
0.0110541
0.00902514
0.00737352
0.00631286
0.00595029
0.00627412
0.00714234
0.00833077
0.00966367
0.0110209
0.0123093
0.0134575
0.0144148
0.0151536
0.0156689
0.0159764
0.0160927
0.0159962
0.0156421
0.0149853
0.0139963
0.0126814
0.0110976
0.0093615
0.00762269
0.00599363
0.00454013
0.00329054
0.00223177
0.00130883
0.00043641
-0.000464434
-0.00144968
-0.00255362
-0.00378591
-0.00512509
-0.00651504
-0.00786367
-0.00904856
-0.00993255
-0.0103957
-0.0103604
-0.00981117
-0.00880968
-0.00750182
-0.00607086
-0.00462797
-0.00323329
-0.00191946
-0.000698255
0.000421314
0.00142143
0.00227908
0.00297134
0.00347989
0.00379737
0.00393216
0.00390329
0.00371571
0.00335826
0.00282067
0.00210805
0.00124933
0.000299176
-0.00068031
-0.00164635
-0.0025684
-0.0034226
-0.00419369
-0.00487595
-0.00547444
-0.00599851
-0.00644618
-0.006806
-0.00706582
-0.00721873
-0.00726948
-0.00723861
-0.00716461
-0.00709531
-0.00706635
-0.00709667
-0.00718934
-0.00732857
-0.00747777
-0.00757918
-0.00755888
-0.00733769
-0.00684212
-0.0060172
-0.00484266
-0.00334753
-0.00161956
0.000212441
0.00203355
0.00374563
0.00525665
0.00648258
0.00734824
0.00778501
0.00775034
0.00724878
0.00634509
0.00515638
0.00379602
0.00233177
0.000810954
-0.000720954
-0.00221535
-0.00361857
-0.00488054
-0.00596745
-0.00686466
-0.00757877
-0.00813575
-0.00856147
-0.00886958
-0.00907515
-0.00920601
-0.00930726
-0.0094424
-0.00968094
-0.0100717
-0.0106398
-0.0113831
-0.0122655
-0.0132152
-0.0141382
-0.0149526
-0.015588
-0.0159883
-0.016122
-0.0159926
-0.0156491
-0.0151901
-0.0147588
-0.0145031
-0.0144961
-0.014736
-0.0151537
-0.0156179
-0.0159771
-0.0161156
-0.0159544
-0.0154529
-0.0146174
-0.0134881
-0.0120976
-0.0104754
-0.00866548
-0.00672827
-0.00472308
-0.00268046
-0.000615313
0.00146236
0.00354118
0.00560524
0.00763208
0.00959613
0.0114689
0.0132211
0.014825
0.0162581
0.0174976
0.0185022
0.0192216
0.0196162
0.0196739
0.0194229
0.0189381
0.0183144
0.017599
0.0168091
0.0159501
0.0150206
0.0140176
0.0129401
0.0117857
0.0105384
0.00917747
0.0076858
0.00605663
0.00429823
0.00243476
0.000492447
-0.00151874
-0.00359498
-0.00572757
-0.00789739
-0.0100683
-0.0121827
-0.014158
-0.0158909
-0.0172661
-0.0181723
-0.0185193
-0.0182599
-0.0174135
-0.0160815
-0.0144136
-0.0125076
-0.0104143
-0.00817323
-0.00583006
-0.00344617
-0.00110276
0.00111354
0.00314593
0.00496616
0.00657212
0.00798748
0.00924202
0.0103463
0.011305
0.0121288
0.0128374
0.0134489
0.01395
0.0143094
0.0144917
0.0144681
0.0142254
0.0137734
0.0131344
0.0123122
0.0113091
0.0101439
0.00886092
0.00753584
0.00627505
0.00519427
0.00437422
0.00385616
0.00363919
0.00367439
0.00388545
0.00421983
0.00463441
0.00508235
0.00551338
0.0058841
0.00618358
0.00643561
0.00669273
0.00702932
0.0075252
0.00823028
0.00913728
0.0101904
0.0113183
0.0124756
0.0136332
0.0147694
0.0158698
0.0169253
0.0179283
0.0188624
0.0197039
0.0204263
0.0210055
0.0214267
0.0216913
0.0218216
0.021859
0.0218441
0.0218015
0.0217478
0.0216966
0.021659
0.0216433
0.0216536
0.0216873
0.0217305
0.0217523
0.0217052
0.0215286
0.021154
0.020514
0.0195531
0.0182387
0.0165625
0.0145383
0.0122219
0.00972432
0.00720046
0.00480132
0.0026302
0.00074768
-0.000831674
-0.00214517
-0.00328357
-0.00436178
-0.00545656
-0.00661308
-0.00785349
-0.0091732
-0.0105411
-0.0118997
-0.0131709
-0.014266
-0.0150998
-0.015604
-0.0157447
-0.0155402
-0.0150741
-0.0144994
-0.0140085
-0.0137621
-0.0138879
-0.0144753
-0.0155564
-0.0170907
-0.0189685
-0.0210494
-0.0231746
-0.0251563
-0.0267926
-0.0279163
-0.0284412
-0.028372
-0.0278106
-0.0269339
-0.0259052
-0.0248048
-0.0236569
-0.0224509
-0.0211499
-0.0197039
-0.0180619
-0.0161859
-0.0140678
-0.0117463
-0.00931684
-0.00693188
-0.00477051
-0.00297055
-0.00160915
-0.000701624
-0.000211675
-9.90296e-05
-0.000327851
-0.000842189
-0.00155884
-0.00239529
-0.00331027
-0.00428509
-0.00530637
-0.00635875
-0.00741925
-0.00845748
-0.00943679
-0.0103141
-0.0110427
-0.0115784
-0.0118842
-0.0119418
-0.0117644
-0.0114068
-0.0109584
-0.0105166
-0.0101896
-0.0100939
-0.0103279
-0.0109285
-0.0118528
-0.0129746
-0.0140953
-0.0150015
-0.0155458
-0.0156466
-0.015288
-0.0145279
-0.0134668
-0.0121671
-0.0106554
-0.00895178
-0.00708486
-0.00510383
-0.00308485
-0.00112136
0.000711759
0.00235792
0.00376594
0.00487265
0.0055969
0.00586123
0.00561437
0.00485057
0.00360778
0.00193629
-7.64282e-05
-0.00230584
-0.00464388
-0.00701324
-0.00934608
-0.0115731
-0.0136223
-0.0154201
-0.0168943
-0.0179879
-0.0186754
-0.0189787
-0.0189765
-0.0187865
-0.0185013
-0.0181664
-0.0178023
-0.0174154
-0.017004
-0.0165635
-0.0160892
-0.0155808
-0.015039
-0.0144589
-0.0138332
-0.0131551
-0.0124192
-0.0116234
-0.010767
-0.00984667
-0.00885259
-0.00777516
-0.0066101
-0.00536396
-0.00405757
-0.00272825
-0.00142341
-0.000183601
0.000967545
0.00202201
0.00298892
0.00389316
0.00476496
0.00562418
0.00648484
0.00735798
0.00825273
0.00917587
0.0101321
0.0111234
0.01215
0.0132121
0.0143126
0.0154543
0.0166379
0.0178591
0.0191074
0.0203668
0.0216234
0.0228693
0.0241007
0.0253151
0.0265106
0.0276843
0.0288299
0.029934
0.0309666
0.03187
0.0325671
0.0329734
0.033011
0.0326259
0.0318065
0.0305984
0.0291035
0.0274358
0.0256566
0.0237981
0.0218828
0.0199298
0.0179563
0.0159738
0.0139937
0.0120334
0.0101175
0.00827916
0.00655728
0.00499146
0.00361383
0.00244096
0.00146592
0.000660034
-7.42707e-06
-0.000553813
-0.000996533
-0.00136104
-0.00168291
-0.00200054
-0.00233477
-0.0026801
-0.00300919
-0.00327551
-0.003418
-0.00336753
-0.00305816
-0.00244143
-0.00150136
-0.000267035
0.00117956
0.00272263
0.00426777
0.00574496
0.00709695
0.0082793
0.00926238
0.0100336
0.0105889
0.0109076
0.0109491
0.0106751
0.0100683
0.00915163
0.00800126
0.00675279
0.00557597
0.00460381
0.00389777
0.00345541
0.00321236
0.0030642
0.00292105
0.00271318
0.00238239
0.00188485
0.00119457
0.000308547
-0.000752263
-0.00195727
-0.00330159
-0.00479292
-0.00643721
-0.00822893
-0.0101426
-0.0121256
-0.0140973
-0.0159647
-0.0176624
-0.0191615
-0.0204697
-0.0216328
-0.0227305
-0.0238452
-0.0250206
-0.0262669
-0.0275667
-0.0288758
-0.0301323
-0.0312767
-0.0322657
-0.0330752
-0.0337066
-0.0341896
-0.0345747
-0.0349028
-0.0351814
-0.0353938
-0.0355071
-0.0354781
-0.035262
-0.0348238
-0.0341498
-0.0332564
-0.0321928
-0.0310184
-0.0297705
-0.0284773
-0.027168
-0.0258757
-0.0246371
-0.0234903
-0.0224669
-0.0215846
-0.0208417
-0.0202129
-0.0196465
-0.0190708
-0.0184169
-0.0176393
-0.0167145
-0.0156436
-0.0144543
-0.0132011
-0.0119497
-0.0107438
-0.00959853
-0.00850462
-0.00742804
-0.00631465
-0.0050997
-0.00372483
-0.00214578
-0.000343157
0.00166743
0.00382735
0.00604409
0.00821886
0.0102442
0.0120046
0.0133914
0.0143233
0.0147661
0.0147489
0.0143762
0.0138107
0.013203
0.012633
0.0121302
0.0116867
0.0112625
0.0107947
0.0102234
0.00953481
0.00876172
0.00797821
0.00727857
0.00673153
0.00637791
0.00622867
0.00626225
0.0064384
0.00670788
0.00700296
0.00723417
0.00729853
0.00710296
0.00659595
0.00577622
0.0046996
0.00348125
0.00227335
0.00119466
0.000273972
-0.000534677
-0.00132944
-0.00221369
-0.00323319
-0.0043799
-0.00559797
-0.00679937
-0.00790573
-0.00885659
-0.00960949
-0.0101466
-0.0104801
-0.0106454
-0.0106712
-0.0105714
-0.0103567
-0.0100409
-0.00963442
-0.00912734
-0.00850003
-0.00773475
-0.00682461
-0.00578163
-0.00464195
-0.00345949
-0.00228182
-0.00114058
-5.76048e-05
0.000953256
0.00188307
0.00271866
0.00343704
0.004014
0.00443265
0.00469161
0.00481206
0.00484271
0.00485361
0.00491054
0.00505293
0.00529863
0.00564655
0.00608051
0.00658387
0.00715046
0.00777764
0.00846081
0.0091902
0.00994879
0.0107146
0.0114695
0.0121962
0.0128777
0.0134983
0.0140466
0.0145187
0.0149219
0.0152772
0.0156173
0.015977
0.0163885
0.0168814
0.01748
0.0181982
0.0190336
0.0199637
0.0209465
0.0219342
0.0228763
0.0237162
0.0243922
0.024842
0.025009
0.0248478
0.0243175
0.0233729
0.0219899
0.0201888
0.0180479
0.0156849
0.0131961
0.0106772
0.0082387
0.00600092
0.00406709
0.00247322
0.00118505
0.000102759
-0.000910839
-0.00195684
-0.00309297
-0.00434343
-0.00570058
-0.00712526
-0.00855904
-0.00994933
-0.0112501
-0.0124222
-0.0134384
-0.0142854
-0.0149588
-0.0154431
-0.0157238
-0.0158001
-0.015693
-0.01545
-0.0151347
-0.0147936
-0.0144573
-0.0141504
-0.0138945
-0.0137095
-0.0136131
-0.0136198
-0.0137411
-0.0139907
-0.014393
-0.0149708
-0.0157332
-0.0166655
-0.0177226
-0.0188308
-0.0199108
-0.0208969
-0.0217348
-0.0223835
-0.0228229
-0.0259172
-0.0259958
-0.0259777
-0.0259233
-0.0258768
-0.0258725
-0.0259367
-0.0260849
-0.0263186
-0.0266219
-0.0269588
-0.0272751
-0.0275076
-0.027586
-0.0274355
-0.0269786
-0.0261411
-0.0248698
-0.0231519
-0.0210294
-0.0185951
-0.0159461
-0.0131511
-0.0102744
-0.0073931
-0.00459626
-0.00197298
0.000402535
0.0024737
0.00420867
0.00560715
0.00668996
0.00746388
0.00794521
0.00818054
0.0082539
0.00826679
0.00828549
0.00835195
0.0084934
0.0087199
0.0090218
0.00936578
0.00969296
0.00991901
0.00993865
0.00963499
0.00889486
0.00762942
0.00579826
0.00343265
0.000650606
-0.0023619
-0.00542885
-0.00841196
-0.011193
-0.0136711
-0.0157735
-0.0174671
-0.0187727
-0.0197715
-0.0206062
-0.0214393
-0.0223662
-0.0234237
-0.0246021
-0.0258431
-0.0270481
-0.0280994
-0.0288829
-0.0292972
-0.0292675
-0.028761
-0.0277973
-0.0264271
-0.0246697
-0.0225442
-0.0201002
-0.0174295
-0.0146613
-0.0119187
-0.00928436
-0.00681321
-0.00453858
-0.00247048
-0.000593144
0.00112843
0.00272502
0.00420632
0.00557403
0.00683222
0.00799375
0.00908384
0.0101355
0.0111713
0.012203
0.0132359
0.014269
0.0152936
0.0162918
0.0172325
0.0180651
0.0187242
0.0191398
0.0192504
0.0190189
0.0184491
0.0176007
0.0165967
0.0156114
0.0148191
0.0143476
0.0142769
0.0146293
0.0153555
0.0163276
0.0173581
0.0182692
0.0189504
0.0193479
0.0194572
0.0193137
0.0189539
0.0183879
0.0176169
0.0166476
0.0155007
0.0142168
0.0128492
0.0114344
0.00998507
0.00850461
0.00699745
0.00547381
0.00395445
0.00247216
0.00107084
-0.000200375
-0.00129372
-0.00217159
-0.00281609
-0.00324052
-0.00349604
-0.00367336
-0.00387835
-0.00417935
-0.00461168
-0.00518297
-0.00586993
-0.0066246
-0.0073933
-0.00813352
-0.00880943
-0.00939134
-0.00985788
-0.0101993
-0.0104198
-0.0105381
-0.0105811
-0.0105641
-0.0104858
-0.0103355
-0.0101
-0.00976862
-0.00933885
-0.00882138
-0.0082422
-0.00763401
-0.00701466
-0.00639258
-0.00577223
-0.00515489
-0.00453994
-0.00392547
-0.00330943
-0.00269048
-0.00206903
-0.0014478
-0.000832298
-0.000230286
0.000348275
0.00089223
0.00139052
0.00183423
0.00221879
0.00254611
0.00282592
0.00307379
0.00330362
0.00352521
0.00374633
0.00397334
0.00421089
0.0044612
0.00472319
0.00499156
0.0052557
0.00549905
0.00569963
0.00583192
0.00586996
0.00579164
0.00558382
0.00524783
0.00480345
0.00428821
0.00374386
0.00319721
0.00266606
0.00216357
0.00169844
0.00127477
0.000891828
0.000544581
0.000226448
-7.15749e-05
-0.000362365
-0.000663228
-0.000995206
-0.00138149
-0.00184429
-0.00240158
-0.00306332
-0.00382466
-0.00465928
-0.00551501
-0.00631313
-0.00695557
-0.00734823
-0.00743212
-0.00718674
-0.00663134
-0.00580709
-0.00472747
-0.00338724
-0.00178844
4.29151e-05
0.00204638
0.00412744
0.00618803
0.00816924
0.0100365
0.0117666
0.0133395
0.0147231
0.0158806
0.0167793
0.0173979
0.0177325
0.0177902
0.0175595
0.0170104
0.0161198
0.014891
0.0133572
0.0115694
0.00961392
0.00762205
0.00575162
0.00412924
0.00280299
0.00175201
0.000897406
0.000135789
-0.000591056
-0.00130831
-0.00202049
-0.00271313
-0.00335709
-0.00391719
-0.00436695
-0.00469802
-0.00492267
-0.00507432
-0.00519654
-0.00531692
-0.00544454
-0.00557508
-0.00569204
-0.00576991
-0.00578164
-0.00570888
-0.00554439
-0.00529462
-0.00498174
-0.00464037
-0.00430393
-0.00399385
-0.00372275
-0.0034958
-0.00331035
-0.00315622
-0.00301935
-0.00289005
-0.00276341
-0.00263746
-0.0025124
-0.00238984
-0.00227184
-0.00215969
-0.00205256
-0.00194561
-0.001829
-0.00168839
-0.00150646
-0.00126498
-0.000948103
-0.000545989
-5.90706e-05
0.000499265
0.00110155
0.00171498
0.00232055
0.00290804
0.00347093
0.00400556
0.00450977
0.00498257
0.0054232
0.00583076
0.00620315
0.00653525
0.00681816
0.00704173
0.00719716
0.00727995
0.0072925
0.00724586
0.00715908
0.00705207
0.00693606
0.00681689
0.00669769
0.00657936
0.00646125
0.00634147
0.00621743
0.0060863
0.00594551
0.00579303
0.0056275
0.00544811
0.00525526
0.00505108
0.00483944
0.00462472
0.00440885
0.00419158
0.00397175
0.00374792
0.00351915
0.0032856
0.00304905
0.00281292
0.0025811
0.00235506
0.0021349
0.00191983
0.00170867
0.00150009
0.00129309
0.00108716
0.000882635
0.00068004
0.00047887
0.000278385
7.87173e-05
-0.000118673
-0.000310522
-0.000492079
-0.000658141
-0.000804152
-0.00092602
-0.00102063
-0.00108633
-0.00112372
-0.00113604
-0.00112937
-0.00111085
-0.00108509
-0.00105511
-0.0010233
-0.000991393
-0.00096041
-0.000930312
-0.000899499
-0.000864763
-0.000821569
-0.000764386
-0.000687345
-0.000585019
-0.000453378
-0.000290315
-9.55076e-05
0.000127714
0.00037114
0.000621567
0.000864434
0.00109123
0.00129744
0.00148067
0.0016404
0.00177763
0.00189424
0.00199172
0.00207171
0.00213628
0.00218804
0.00222982
0.00226364
0.00229004
0.00230876
0.00231917
0.00232062
0.00231267
0.00229536
0.00226929
0.0022354
0.00219419
0.00214566
0.00208992
0.00202761
0.00196017
0.00188989
0.0018198
0.00175271
0.00169013
0.00163261
0.00158002
0.00153154
0.00148574
0.00144076
0.00139469
0.00134616
0.00129453
0.00123993
0.00118325
0.00112604
0.00106984
0.00101548
0.000963474
0.000914279
0.000868373
0.000826256
0.000788184
0.000753605
0.000721528
0.000690876
0.000660744
0.000630671
0.000600939
0.000572645
0.000547689
0.000528525
0.000517427
0.000515232
0.000521645
0.00053558
0.00055562
0.000580503
0.00060886
0.00063907
0.000669543
0.000699271
0.000727715
0.000754538
0.000779514
0.000802521
0.000823615
0.000842936
0.000860647
0.00087691
0.000891869
0.000905665
0.000918441
0.000930303
0.000941282
0.00095131
0.000960205
0.000967685
0.000973396
0.000977035
0.000978529
0.000978002
0.000975697
0.000971928
0.000967019
0.000961216
0.000954677
0.000947494
0.000939725
0.000931397
0.000922529
0.000913146
0.000903292
0.000893025
0.000882426
0.000871586
0.000860607
0.000849578
0.000838551
0.000827551
0.000816589
0.000805666
0.000794782
0.000783933
0.000773115
0.000762323
0.000751555
0.000740805
0.000730067
0.000719336
0.000708608
0.000697878
0.000687142
0.000676398
0.000665643
0.000654875
0.000644094
0.000633298
0.000622489
0.000611667
0.000600833
0.000589987
0.000579133
0.000568271
0.000557404
0.000546535
0.000535665
0.0005248
0.00051394
0.000503091
0.000492257
